-62.8802656760145	1573.5
-62.0712801655087	1573.59997558594
-61.2624144408879	1572.03332519531
-60.4536684613764	1574.43334960938
-59.6450421861946	1574.66662597656
-58.8365355746153	1574.96667480469
-58.0281485858832	1573.80004882813
-57.2198811793115	1573.36669921875
-56.4117333141813	1573.80004882813
-55.6037049498382	1573.30004882813
-54.7957960456036	1573.73327636719
-53.9880065608474	1572.96667480469
-53.1803364549354	1574.59997558594
-52.3727856872778	1574.76672363281
-51.5653542172727	1573.09997558594
-50.7580420043586	1575.06665039063
-49.9508490079698	1574.09997558594
-49.143775187589	1574
-48.3368205026788	1575
-47.5299849127581	1575
-46.7232683773338	1573.19995117188
-45.9166708559529	1574.13330078125
-45.1101923081504	1575.5
-44.3038326935136	1574.26672363281
-43.4975919716136	1573.46667480469
-42.6914701020778	1575.33337402344
-41.8854670445174	1574.73327636719
-41.07958275858	1574.26672363281
-40.2738172039169	1573.23327636719
-39.4681703402036	1575.26672363281
-38.6626421271476	1573.53332519531
-37.8572325244484	1575.16662597656
-37.0519414918416	1574.90002441406
-36.2467689890625	1573.03332519531
-35.441714975895	1572.16662597656
-34.6367794121022	1574.76672363281
-33.8319622574879	1573.66662597656
-33.0272634718794	1573.96667480469
-32.2226830151083	1573.76672363281
-31.4182208470059	1573.73327636719
-30.6138769274635	1575.43334960938
-29.8096512163686	1574.69995117188
-29.0055436736122	1574.73327636719
-28.2015542591217	1573.36669921875
-27.397682932832	1574
-26.5939296547063	1574
-25.7902943847235	1573.73327636719
-24.9867770828543	1574.56665039063
-24.1833777091256	1575.09997558594
-23.3800962235519	1573.93334960938
-22.5769325861837	1575
-21.7738867570794	1575.30004882813
-20.9709586963133	1574.19995117188
-20.1681483639916	1573.26672363281
-19.365455720212	1573.96667480469
-18.5628807251165	1573.30004882813
-17.7604233388427	1573.16662597656
-16.9580835215601	1573.09997558594
-16.1558612334539	1572.96667480469
-15.3537564347134	1574.5
-14.5517690855595	1573.19995117188
-13.7498991462288	1575.46667480469
-12.94814657697	1573.86669921875
-12.1465113380514	1574.59997558594
-11.3449933897571	1575.06665039063
-10.543592692387	1574.43334960938
-9.74230920626065	1572.23327636719
-8.9411428917136	1573.23327636719
-8.14009370910902	1575.30004882813
-7.33916161880982	1572.43334960938
-6.53834658120667	1574.56665039063
-5.73764855670195	1574.19995117188
-4.9370675057178	1574.76672363281
-4.13660338870815	1574.13330078125
-3.33625616610644	1573.96667480469
-2.53602579839399	1574.40002441406
-1.73591224606778	1575.03332519531
-0.93591546962846	1574.40002441406
-0.136035429612425	1575.03332519531
0.663727913452362	1578.06665039063
1.46337459899013	1588.23327636719
2.26290466644961	1602.53332519531
3.06231815521169	1599.76672363281
3.86161510468576	1584.06665039063
4.66079555422945	1576.83337402344
5.45985954321688	1574.66662597656
6.25880711096637	1573
7.05763829681681	1575.13330078125
7.85635314006331	1573.80004882813
8.65495168000148	1574.13330078125
9.45343395589124	1574.59997558594
10.251800007001	1574.43334960938
11.0500498725555	1574.5
11.848183591788	1574.06665039063
12.6462012038881	1574.59997558594
13.4441027480499	1574.93334960938
14.2418882634437	1575
15.0395577892247	1572.66662597656
15.8371113645201	1575.13330078125
16.6345490284539	1574.5
17.4318708201263	1575.09997558594
18.2290767786302	1575.33337402344
19.0261669430227	1573.36669921875
19.8231413523778	1573.66662597656
20.6200000456976	1573.90002441406
21.4167430620288	1573
22.2133704403548	1575.09997558594
23.0098822196713	1575.63330078125
23.8062784389426	1574.93334960938
24.6025591371175	1573.93334960938
25.3987243531334	1575.40002441406
26.1947741259042	1574.23327636719
26.9907084943443	1574.23327636719
27.7865274973208	1575.13330078125
28.5822311737091	1574.19995117188
29.3778195623575	1574.16662597656
30.1732927021065	1576.26672363281
30.9686506317656	1576.16662597656
31.7638933901446	1574.80004882813
32.5590210160179	1574.5
33.3540335481646	1575.33337402344
34.1489310253285	1574.80004882813
34.9437134862418	1574.09997558594
35.7383809696253	1575.13330078125
36.5329335141808	1573.93334960938
37.3273711585903	1574.83337402344
38.1216939415287	1574.83337402344
38.9159019016394	1573.73327636719
39.7099950775626	1572.13330078125
40.5039735079151	1575.69995117188
41.2978372312983	1575.83337402344
42.0915862862985	1573.06665039063
42.8852207114822	1573.93334960938
43.6787405454012	1575.40002441406
44.4721458265996	1573.40002441406
45.2654365935904	1573.96667480469
46.058612884867	1575.26672363281
46.8516747389399	1573.76672363281
47.6446221942481	1574.46667480469
48.4374552892714	1575.26672363281
49.2301740624383	1574.96667480469
50.0227785521661	1573.83337402344
50.8152687968608	1575
51.6076448349091	1573.63330078125
52.3999067046866	1575
53.1920544445376	1574.63330078125
53.9840880928151	1573.93334960938
54.7760076878371	1575.46667480469
55.567813267906	1575.43334960938
56.3595048713054	1574.86669921875
57.1510825363196	1576.69995117188
57.9425463012015	1577.23327636719
58.733896204193	1575.59997558594
59.5251322835168	1577.09997558594
60.3162545773685	1580.56665039063
61.1072631239722	1581.40002441406
61.8981579614694	1587.30004882813
62.6889391280379	1588.59997558594
63.4796066618127	1594.5
64.2701606009215	1600.5
65.0606009834849	1606.69995117188
65.8509278475725	1616.63330078125
66.6411412312945	1628.59997558594
67.4312411726863	1644.59997558594
68.221227709804	1661.13330078125
69.0111008806766	1675.30004882813
69.8008607233221	1698.36669921875
70.5905072757234	1721.59997558594
71.3800405758802	1747.59997558594
72.1694606617374	1779.93334960938
72.9587675712524	1811.33337402344
73.747961342356	1852.56665039063
74.5370420129716	1893.19995117188
75.3260096209917	1943.63330078125
76.1148642042977	1989.30004882813
76.9036058007681	2038.90002441406
77.6922344482463	2097.56665039063
78.4807501845685	2146.30004882813
79.2691530475681	2196.7666015625
80.0574430750156	2240.36669921875
80.845620304738	2293
81.6336847744759	2326.39990234375
82.4216365220025	2362.46655273438
83.2094755850442	2390.13330078125
83.9972020013364	2408.36669921875
84.7848158085834	2427.33325195313
85.5723170444668	2445.60009765625
86.3597057466849	2448.5
87.1469819528733	2459.60009765625
87.9341457006927	2468.60009765625
88.7211970277526	2458.10009765625
89.5081359716837	2470.10009765625
90.2949625700579	2471.19995117188
91.081676860484	2481.5
91.8682788805079	2488.60009765625
92.6547686676808	2508.60009765625
93.4411462595307	2500.93334960938
94.2274116935869	2517.80004882813
95.0135650073277	2520.30004882813
95.7996062382647	2538.06665039063
96.5855354238424	2535.46655273438
97.3713526015265	2544.39990234375
98.157057808752	2570.7333984375
98.9426510829309	2553.5
99.7281324614842	2575.80004882813
100.513501981782	2581.39990234375
101.298759681221	2587.19995117188
102.083905597144	2601.83325195313
102.868939766891	2592.2333984375
103.653862227798	2603.10009765625
104.438673017168	2591.43334960938
105.223372172302	2602.43334960938
106.007959730469	2602.89990234375
106.792435728938	2610.33325195313
107.576800204962	2602.89990234375
108.361053195763	2613.36669921875
109.145194738568	2604.7333984375
109.929224870558	2599.89990234375
110.71314362894	2610.89990234375
111.496951050867	2614.19995117188
112.280647173509	2605.2666015625
113.064232033987	2608.36669921875
113.847705669429	2604.13330078125
114.631068116938	2614.7666015625
115.414319413616	2629.16674804688
116.197459596525	2628.53344726563
116.980488702734	2628.7666015625
117.76340676928	2640.93334960938
118.546213833194	2639.96655273438
119.328909931491	2654.03344726563
120.111495101165	2654.2333984375
120.893969379195	2655.30004882813
121.676332802552	2674.19995117188
122.458585408185	2685.43334960938
123.240727233033	2683.39990234375
124.022758314001	2693.66674804688
124.804678688012	2704.80004882813
125.586488391943	2706.80004882813
126.368187462664	2704.46655273438
127.149775937045	2704.66674804688
127.931253851906	2708.89990234375
128.712621244105	2690.10009765625
129.493878150424	2706.06665039063
130.275024607679	2714.56665039063
131.05606065263	2713.13330078125
131.836986322054	2716.63330078125
132.617801652702	2721.30004882813
133.398506681303	2722.7333984375
134.179101444575	2718.03344726563
134.959585979225	2724.69995117188
135.739960321933	2728.13330078125
136.520224509383	2742
137.30037857821	2752.93334960938
138.080422565087	2751.96655273438
138.860356506612	2758.36669921875
139.640180439409	2752.30004882813
140.419894400069	2779.16674804688
141.199498425174	2764.46655273438
141.978992551284	2781.03344726563
142.758376814962	2795.10009765625
143.537651252719	2788.89990234375
144.3168159011	2789.53344726563
145.095870796584	2804.33325195313
145.874815975682	2792.06665039063
146.653651474851	2811.86669921875
147.432377330548	2804.36669921875
148.210993579225	2809.60009765625
148.989500257303	2800.66674804688
149.767897401202	2816
150.546185047308	2806.80004882813
151.324363232007	2824.5
152.102431991664	2816.66674804688
152.880391362628	2815.10009765625
153.658241381243	2818.93334960938
154.435982083826	2821.5
155.213613506675	2810.36669921875
155.991135686104	2816.86669921875
156.768548658349	2805.5
157.545852459702	2817.60009765625
158.323047126388	2814.53344726563
159.100132694662	2816.7333984375
159.877109200719	2811.16674804688
160.653976680759	2803.89990234375
161.430735170968	2798.86669921875
162.207384707527	2789.56665039063
162.98392532658	2797.56665039063
163.760357064266	2773.06665039063
164.536679956709	2789.13330078125
165.312894040019	2792.36669921875
166.08899935029	2787.19995117188
166.86499592361	2779.80004882813
167.64088379603	2783.89990234375
168.416663003602	2765.69995117188
169.19233358237	2784.06665039063
169.967895568343	2765.03344726563
170.743348997518	2766.66674804688
171.518693905903	2762.19995117188
172.293930329461	2764.7333984375
173.06905830415	2787.7333984375
173.844077865923	2770.06665039063
174.618989050701	2782.2333984375
175.393791894402	2791.06665039063
176.168486432918	2811.83325195313
176.943072702149	2815.06665039063
177.717550737943	2796.03344726563
178.491920576174	2819.30004882813
179.266182252671	2814.96655273438
180.040335803267	2808.83325195313
180.814381263757	2811.56665039063
181.58831866996	2823
182.362148057631	2812.80004882813
183.135869462553	2816.39990234375
183.909482920467	2817.06665039063
184.682988467117	2810.03344726563
185.456386138212	2815.2333984375
186.22967596947	2818.89990234375
187.002857996574	2819.69995117188
187.775932255208	2808.7666015625
188.548898781025	2831.33325195313
189.32175760968	2834.30004882813
190.094508776801	2829.7666015625
190.867152318005	2819.56665039063
191.639688268901	2817.06665039063
192.412116665058	2813.06665039063
193.184437542076	2818.2666015625
193.9566509355	2799.39990234375
194.728756880869	2803.39990234375
195.500755413713	2804.43334960938
196.272646569558	2807.56665039063
197.044430383894	2802.06665039063
197.816106892204	2789.36669921875
198.587676129964	2788.96655273438
199.359138132634	2789.46655273438
200.130492935633	2782.33325195313
200.901740574413	2782.43334960938
201.672881084377	2788.2333984375
202.443914500921	2795.86669921875
203.214840859416	2790.56665039063
203.985660195246	2780.53344726563
204.756372543762	2808.89990234375
205.526977940299	2794.89990234375
206.297476420174	2800.43334960938
207.067868018711	2809.19995117188
207.838152771188	2793.63330078125
208.608330712894	2804.69995117188
209.378401879107	2815.30004882813
210.148366305059	2811.2333984375
210.918224025992	2808.36669921875
211.687975077139	2815.96655273438
212.457619493685	2811.60009765625
213.227157310848	2815.19995117188
213.996588563789	2816.43334960938
214.76591328768	2806.89990234375
215.535131517664	2814.2333984375
216.304243288882	2809.5
217.073248636458	2806.7333984375
217.842147595492	2806.16674804688
218.610940201072	2812.7333984375
219.379626488284	2809.30004882813
220.148206492193	2811.56665039063
220.91668024783	2820.13330078125
221.685047790247	2812.66674804688
222.453309154456	2812.53344726563
223.221464375454	2830.10009765625
223.989513488251	2820.06665039063
224.75745652781	2820.86669921875
225.525293529093	2828.63330078125
226.293024527053	2838.2666015625
227.060649556623	2840.56665039063
227.828168652717	2846.60009765625
228.595581850241	2859.2666015625
229.362889184086	2829.16674804688
230.130090689128	2827.7666015625
230.89718640023	2833.16674804688
231.664176352239	2834.60009765625
232.431060579987	2827.63330078125
233.197839118289	2820.7666015625
233.964512001954	2814.33325195313
234.731079265774	2827.33325195313
235.497540944521	2807.2333984375
236.263897072963	2798.69995117188
237.030147685833	2778.63330078125
237.796292817881	2775.89990234375
238.562332503806	2775.43334960938
239.328266778331	2759.5
240.094095676137	2758.36669921875
240.859819231909	2757.36669921875
241.62543748029	2754.30004882813
242.390950455954	2740.2666015625
243.156358193514	2742.7666015625
243.921660727599	2740.80004882813
244.68685809281	2754.63330078125
245.451950323743	2753.06665039063
246.216937454966	2753.5
246.981819521049	2737.33325195313
247.746596556546	2760.33325195313
248.511268595976	2779.16674804688
249.275835673871	2772.89990234375
250.04029782473	2769.43334960938
250.804655083059	2754.33325195313
251.568907483323	2761.89990234375
252.333055059988	2746.89990234375
253.097097847503	2752.7333984375
253.861035880304	2732.83325195313
254.62486919282	2747.80004882813
255.388597819456	2738.96655273438
256.152221794596	2734.5
256.91574115264	2724.43334960938
257.679155927928	2721.2666015625
258.442466154831	2726.46655273438
259.205671867672	2718.5
259.968773100793	2710.96655273438
260.731769888482	2722.7666015625
261.494662265052	2716.39990234375
262.257450264777	2724.69995117188
263.020133921935	2724.30004882813
263.782713270754	2732.7666015625
264.545188345504	2713.10009765625
265.307559180386	2739.69995117188
266.069825809631	2722.2333984375
266.831988267425	2717.83325195313
267.594046587959	2725.03344726563
268.356000805395	2708.2666015625
269.117850953891	2707.2666015625
269.879597067602	2713.60009765625
270.641239180637	2717.69995117188
271.402777327131	2718.5
272.164211541161	2730.10009765625
272.925541856831	2721.2666015625
273.686768308211	2740.86669921875
274.44789092936	2736.16674804688
275.208909754314	2738.46655273438
275.969824817121	2728.60009765625
276.730636151784	2727.93334960938
277.491343792312	2734.10009765625
278.251947772692	2734.10009765625
279.012448126904	2723.69995117188
279.77284488891	2744.30004882813
280.533138092657	2732.33325195313
281.293327772081	2732.2333984375
282.053413961105	2737.46655273438
282.813396693626	2733.80004882813
283.573276003551	2731.7666015625
284.333051924748	2746.43334960938
285.092724491092	2760.96655273438
285.852293736427	2763.7333984375
286.611759694607	2765.7333984375
287.371122399433	2772.16674804688
288.13038188474	2770.16674804688
288.889538184304	2778.63330078125
289.648591331919	2756.56665039063
290.407541361362	2771.53344726563
291.166388306376	2769.36669921875
291.925132200712	2765.93334960938
292.683773078096	2790.10009765625
293.44231097225	2771.63330078125
294.200745916861	2781.16674804688
294.959077945631	2807
295.717307092225	2799.06665039063
296.475433390307	2781.93334960938
297.233456873527	2797.60009765625
297.991377575513	2813.93334960938
298.749195529897	2820.53344726563
299.506910770276	2818.46655273438
300.264523330243	2811.69995117188
301.022033243374	2827.7333984375
301.779440543239	2840.06665039063
302.536745263392	2853.19995117188
303.29394743736	2865.89990234375
304.051047098689	2879.36669921875
304.808044280878	2879.46655273438
305.564939017422	2884.53344726563
306.321731341806	2888.39990234375
307.07842128751	2878.03344726563
307.835008887983	2873.16674804688
308.59149417667	2859.13330078125
309.347877187004	2846.13330078125
310.104157952396	2859.5
310.860336506259	2852.43334960938
311.616412881976	2836.56665039063
312.372387112933	2837.46655273438
313.128259232476	2840.96655273438
313.88402927397	2840.33325195313
314.639697270744	2842.63330078125
315.395263256123	2839.19995117188
316.150727263413	2833.89990234375
316.906089325921	2833.43334960938
317.661349476911	2821.96655273438
318.416507749671	2817.89990234375
319.171564177441	2830.86669921875
319.926518793482	2819.30004882813
320.681371630998	2809.16674804688
321.436122723229	2817.56665039063
322.19077210336	2803.7333984375
322.945319804596	2809.33325195313
323.699765860095	2799.69995117188
324.454110303027	2798.46655273438
325.208353166543	2814.10009765625
325.962494483781	2802.69995117188
326.716534287853	2815.10009765625
327.470472611881	2797.06665039063
328.224309488948	2798.60009765625
328.97804495215	2791.56665039063
329.73167903455	2796.7333984375
330.485211769199	2803.7333984375
331.238643189142	2800.69995117188
331.99197332741	2801.30004882813
332.745202217023	2809.83325195313
333.498329890974	2795.96655273438
334.251356382268	2799.63330078125
335.00428172386	2803.83325195313
335.757105948733	2801.10009765625
336.509829089831	2799.86669921875
337.262451180083	2821.60009765625
338.01497225242	2813.96655273438
338.767392339755	2808.39990234375
339.519711474974	2814.33325195313
340.271929690979	2820.5
341.024047020618	2826.63330078125
341.776063496779	2815.39990234375
342.527979152272	2834.60009765625
343.279794019952	2835.19995117188
344.031508132625	2848.63330078125
344.783121523104	2840.39990234375
345.534634224173	2833.96655273438
346.286046268628	2826.46655273438
347.03735768921	2822.83325195313
347.788568518696	2833.19995117188
348.53967878981	2830.03344726563
349.29068853528	2837.53344726563
350.041597787827	2846.2666015625
350.79240658014	2828.36669921875
351.543114944923	2846.7666015625
352.293722914834	2847.39990234375
353.044230522551	2851.80004882813
353.794637800701	2861.2333984375
354.544944781933	2860.30004882813
355.295151498867	2851.43334960938
356.045257984108	2857.93334960938
356.795264270262	2862.39990234375
357.545170389901	2852.06665039063
358.294976375607	2863.63330078125
359.044682259922	2871.30004882813
359.794288075399	2876.19995117188
360.54379385457	2876.56665039063
361.293199629947	2874.16674804688
362.04250543405	2874.86669921875
362.79171129935	2893.13330078125
363.540817258351	2918.93334960938
364.289823343495	2927.13330078125
365.03872958725	2937.39990234375
365.787536022048	2946.43334960938
366.536242680329	2970.53344726563
367.284849594499	2995.83325195313
368.033356796962	3019
368.781764320094	3022.5
369.530072196302	3069.16674804688
370.278280457919	3071.2666015625
371.026389137312	3105.06665039063
371.774398266814	3131.06665039063
372.522307878752	3198.2666015625
373.270118005429	3220.2666015625
374.017828679145	3240.96655273438
374.765439932199	3298.5
375.512951796856	3359.93334960938
376.260364305385	3420.36669921875
377.007677490008	3473.39990234375
377.754891382986	3551.10009765625
378.502006016533	3645.2333984375
379.249021422861	3745.06665039063
379.995937634157	3892
380.742754682616	4140.86669921875
381.489472600403	4506.39990234375
382.236091419679	5046.7333984375
382.982611172583	5752.466796875
383.729031891253	6431.33349609375
384.475353607811	6801.93310546875
385.221576354359	6585.60009765625
385.967700162992	5848.39990234375
386.713725065802	4847.43310546875
387.459651094842	4047.56665039063
388.205478282181	3609
388.951206659853	3339.83325195313
389.696836259896	3210.36669921875
390.442367114332	3148.46655273438
391.18779925515	3111.13330078125
391.933132714366	3104
392.678367523939	3095.33325195313
393.423503715858	3086.03344726563
394.168541322056	3104.33325195313
394.913480374495	3127.86669921875
395.658320905081	3182.06665039063
396.403062945756	3270.43334960938
397.147706528413	3357.53344726563
397.89225168494	3480.66674804688
398.636698447223	3656.66674804688
399.381046847131	3897.63330078125
400.125296916507	4229.89990234375
400.869448687208	4705.966796875
401.613502191047	5351.2666015625
402.357457459854	6353.33349609375
403.101314525419	7562.2666015625
403.845073419553	8719.3330078125
404.588734174014	9455.7333984375
405.332296820579	9376.6669921875
406.075761390996	8548.8662109375
406.819127917025	7309.13330078125
407.562396430365	6188.533203125
408.305566962747	5267
409.048639545884	4662.60009765625
409.79161421145	4255.60009765625
410.534490991132	3993.39990234375
411.277269916601	3796.60009765625
412.019951019504	3613.63330078125
412.762534331484	3530.60009765625
413.505019884163	3438.83325195313
414.247407709166	3333.13330078125
414.989697838098	3257.60009765625
415.731890302547	3181.03344726563
416.473985134093	3118.43334960938
417.215982364291	3088.96655273438
417.957882024722	3054.56665039063
418.699684146901	3023.86669921875
419.44138876237	2992.69995117188
420.182995902647	2967.69995117188
420.92450559923	2964.5
421.665917883614	2943.39990234375
422.407232787286	2922.5
423.1484503417	2908.33325195313
423.889570578319	2900.80004882813
424.630593528589	2910.86669921875
425.371519223938	2901.33325195313
426.112347695776	2881.19995117188
426.853078975517	2893.5
427.593713094549	2885.36669921875
428.33425008426	2888.03344726563
429.074689976016	2879.96655273438
429.815032801174	2883.30004882813
430.555278591075	2885.7666015625
431.295427377053	2893.89990234375
432.035479190425	2896.69995117188
432.775434062504	2891.83325195313
433.515292024581	2915.53344726563
434.255053107939	2914.19995117188
434.994717343853	2925.66674804688
435.734284763569	2940.33325195313
436.473755398347	2929
437.213129279415	2939.13330078125
437.952406437988	2943.30004882813
438.691586905289	2956.06665039063
439.430670712505	2966.43334960938
440.169657890821	2963.39990234375
440.908548471419	2981.7666015625
441.647342485448	2982.10009765625
442.386039964063	3015.69995117188
443.124640938399	3025.86669921875
443.863145439578	3041.93334960938
444.601553498714	3055.83325195313
445.339865146909	3061.7333984375
446.078080415243	3083.2333984375
446.816199334798	3094.53344726563
447.55422193663	3098.80004882813
448.292148251798	3138.63330078125
449.029978311342	3144.80004882813
449.767712146277	3176.7333984375
450.505349787637	3174.53344726563
451.242891266397	3182.30004882813
451.980336613571	3198
452.717685860128	3193.43334960938
453.454939037037	3180.30004882813
454.192096175247	3182.39990234375
454.929157305714	3155.13330078125
455.666122459351	3145.39990234375
456.402991667088	3127.2333984375
457.139764959817	3107.33325195313
457.87644236845	3089.16674804688
458.613023923856	3074.80004882813
459.349509656917	3049.13330078125
460.085899598469	3038.39990234375
460.822193779379	3014.89990234375
461.55839223047	3006.46655273438
462.294494982574	3011.69995117188
463.030502066492	2995.53344726563
463.766413513017	2983.06665039063
464.502229352947	2957.60009765625
465.237949617054	2957.5
465.97357433608	2926.2666015625
466.709103540808	2907.83325195313
467.444537261952	2890
468.179875530237	2879.19995117188
468.915118376397	2846.63330078125
469.650265831115	2823.03344726563
470.385317925091	2805.93334960938
471.120274689003	2761.56665039063
471.855136153509	2734.96655273438
472.589902349272	2710.83325195313
473.32457330693	2674.53344726563
474.059149057119	2653
474.79362963045	2628.86669921875
475.528015057532	2634.56665039063
476.262305368964	2627.89990234375
476.996500595326	2615.10009765625
477.730600767187	2612.7333984375
478.464605915109	2602.89990234375
479.198516069647	2615.53344726563
479.932331261319	2602.66674804688
480.666051520664	2612.96655273438
481.399676878186	2604.46655273438
482.133207364394	2605.86669921875
482.866643009762	2606.89990234375
483.599983844782	2602.2333984375
484.333229899901	2596.16674804688
485.066381205595	2611.93334960938
485.799437792281	2605.10009765625
486.532399690403	2620.53344726563
487.265266930378	2604.30004882813
487.99803954261	2616.7333984375
488.730717557487	2607.5
489.463301005397	2628.19995117188
490.195789916709	2618.16674804688
490.928184321792	2632.10009765625
491.660484250967	2635.5
492.392689734594	2635.60009765625
493.124800802986	2662.63330078125
493.856817486452	2654.10009765625
494.58873981531	2674.2666015625
495.320567819823	2663.46655273438
496.052301530289	2678.7333984375
496.783940976952	2680.66674804688
497.515486190092	2684.43334960938
498.246937199921	2698.2333984375
498.978294036689	2696.86669921875
499.709556730602	2702.19995117188
500.440725311885	2715.46655273438
501.171799810713	2720.86669921875
501.902780257284	2748.16674804688
502.633666681754	2756.96655273438
503.364459114302	2777.16674804688
504.095157585053	2803
504.825762124168	2842.5
505.556272761754	2842.16674804688
506.286689527934	2887.63330078125
507.017012452811	2921.36669921875
507.747241566469	2969.16674804688
508.477376898986	3026.19995117188
509.207418480438	3096.10009765625
509.937366340876	3163.60009765625
510.667220510335	3245.7666015625
511.396981018857	3364.56665039063
512.126647896458	3490.83325195313
512.856221173163	3626.06665039063
513.585700878942	3824.19995117188
514.315087043803	4026.13330078125
515.044379697715	4292.2333984375
515.773578870639	4634.89990234375
516.502684592527	5000.033203125
517.231696893324	5493.033203125
517.960615802948	6020.86669921875
518.689441351322	6641.33349609375
519.418173568352	7249.033203125
520.146812483938	7841.63330078125
520.875358127946	8329.1337890625
521.603810530268	8656.93359375
522.332169720741	8731.2666015625
523.060435729237	8557.2333984375
523.788608585567	8246.6669921875
524.516688319583	7869.033203125
525.244674961073	7398.39990234375
525.97256853986	6962.13330078125
526.700369085727	6560.36669921875
527.428076628453	6150.2998046875
528.155691197806	5805.89990234375
528.88321282354	5463.33349609375
529.610641535404	5224.43310546875
530.337977363139	4979.033203125
531.065220336448	4804
531.792370485059	4591.966796875
532.51942783867	4471.7333984375
533.246392426952	4317.36669921875
533.973264279613	4196.56689453125
534.700043426288	4106.13330078125
535.426729896655	3990.60009765625
536.153323720336	3929.69995117188
536.879824926969	3828.33325195313
537.606233546188	3785
538.332549607593	3711.83325195313
539.058773140773	3644.19995117188
539.784904175324	3606.93334960938
540.510942740812	3560.06665039063
541.236888866812	3529.03344726563
541.962742582867	3480.93334960938
542.688503918518	3456.06665039063
543.414172903305	3409.86669921875
544.139749566731	3388.03344726563
544.865233938318	3360
545.59062604755	3321.63330078125
546.315925923922	3316.7666015625
547.041133596897	3295.33325195313
547.766249095948	3268.89990234375
548.491272450518	3260.06665039063
549.216203690043	3229.16674804688
549.941042843959	3220.56665039063
550.665789941684	3200.7333984375
551.390445012612	3189.10009765625
552.115008086147	3179.16674804688
552.839479191678	3166.19995117188
553.563858358566	3147.63330078125
554.288145616178	3150.2666015625
555.012340993857	3135.83325195313
555.736444520946	3129.56665039063
556.460456226776	3136.86669921875
557.184376140661	3123.2666015625
557.908204291912	3120.83325195313
558.63194070981	3124.30004882813
559.355585423641	3107.83325195313
560.079138462681	3099.63330078125
560.802599856191	3118.36669921875
561.525969633418	3112.06665039063
562.249247823596	3103.2333984375
562.972434455954	3112.43334960938
563.695529559719	3090.63330078125
564.418533164078	3100.36669921875
565.14144529824	3089.43334960938
565.864265991379	3095.93334960938
566.586995272669	3090.7666015625
567.309633171277	3083.13330078125
568.032179716338	3098.19995117188
568.754634937001	3073.53344726563
569.476998862388	3062.83325195313
570.19927152162	3062.89990234375
570.921452943799	3055.36669921875
571.643543158016	3032.93334960938
572.36554219336	3031.46655273438
573.087450078895	3038.03344726563
573.809266843695	3003.2333984375
574.530992516797	2991.46655273438
575.252627127239	2985.60009765625
575.974170704067	2972.2666015625
576.695623276275	2986.60009765625
577.416984872882	2986.5
578.138255522875	2983.36669921875
578.859435255253	2987.33325195313
579.580524098969	2979.66674804688
580.301522082995	2992.43334960938
581.022429236289	2983.89990234375
581.743245587771	2986.30004882813
582.463971166388	2984.80004882813
583.184606001047	2981.30004882813
583.905150120664	2979.66674804688
584.625603554127	2987.03344726563
585.34596633033	2984.83325195313
586.066238478129	2988.13330078125
586.786420026421	2984.96655273438
587.506511004016	2989.89990234375
588.226511439786	3011.5
588.946421362547	3010.2666015625
589.666240801135	2995.53344726563
590.385969784333	3006.06665039063
591.105608340966	3003.2333984375
591.825156499789	3004.86669921875
592.544614289615	3029.96655273438
593.263981739181	3019.03344726563
593.983258877254	3020.63330078125
594.702445732576	3035.03344726563
595.421542333874	3045.2333984375
596.140548709874	3027
596.859464889292	3042.06665039063
597.578290900819	3018.10009765625
598.297026773147	3020.83325195313
599.01567253495	2991.06665039063
599.734228214907	2977.56665039063
600.452693841658	2939.5
601.171069443876	2925.06665039063
601.889355050169	2923.06665039063
602.607550689164	2888.5
603.325656389494	2867.2666015625
604.043672179739	2844.66674804688
604.761598088507	2836.66674804688
605.479434144369	2828.43334960938
606.197180375904	2838.30004882813
606.914836811665	2819.2666015625
607.632403480208	2805.30004882813
608.349880410053	2806.30004882813
609.067267629757	2785.03344726563
609.784565167799	2800.80004882813
610.50177305272	2817.83325195313
611.218891312991	2808.03344726563
611.935919977112	2804.7333984375
612.652859073553	2802.03344726563
613.369708630773	2804.53344726563
614.086468677222	2834.16674804688
614.803139241348	2822
615.519720351572	2841.36669921875
616.236212036331	2862.03344726563
616.952614324014	2874.66674804688
617.668927243039	2877.56665039063
618.385150821779	2896.36669921875
619.101285088619	2894
619.817330071927	2894.36669921875
620.53328580005	2891.10009765625
621.249152301349	2889.7666015625
621.964929604144	2880.2333984375
622.680617736767	2886.16674804688
623.396216727521	2872.33325195313
624.111726604722	2881.2666015625
624.827147396658	2856.60009765625
625.542479131611	2864.96655273438
626.257721837851	2858.2333984375
626.972875543643	2847.83325195313
627.687940277219	2856.13330078125
628.40291606684	2847.69995117188
629.117802940721	2840.60009765625
629.832600927097	2843.7666015625
630.547310054154	2834
631.261930350103	2824.7666015625
631.976461843122	2817.93334960938
632.690904561388	2815.60009765625
633.405258533073	2816.7333984375
634.119523786327	2825.80004882813
634.833700349299	2811.19995117188
635.547788250108	2818.5
636.261787516889	2817.60009765625
636.975698177757	2817.60009765625
637.689520260806	2801.13330078125
638.403253794135	2806.69995117188
639.116898805813	2798.10009765625
639.830455323923	2800.10009765625
640.543923376526	2792.39990234375
641.257302991654	2782.30004882813
641.97059419737	2780.19995117188
642.683797021684	2772.46655273438
643.396911492625	2763.7666015625
644.109937638189	2752.43334960938
644.822875486383	2728.60009765625
645.535725065189	2721
646.24848640259	2704.96655273438
646.961159526541	2698.16674804688
647.673744465009	2707.13330078125
648.386241245922	2685.39990234375
649.098649897237	2689.16674804688
649.810970446856	2680.16674804688
650.523202922707	2665.36669921875
651.235347352688	2666.7333984375
651.947403764692	2670.69995117188
652.6593721866	2658.13330078125
653.37125264629	2651.86669921875
654.083045171609	2661.5
654.79474979043	2660.53344726563
655.506366530575	2666.56665039063
656.217895419889	2657.7333984375
656.929336486172	2652.19995117188
657.640689757255	2652.5
658.351955260922	2644.7333984375
659.063133024971	2654.5
659.774223077175	2644.7666015625
660.485225445308	2648.86669921875
661.196140157123	2655.39990234375
661.906967240365	2654.33325195313
662.617706722782	2662.63330078125
663.328358632091	2653.2666015625
664.038922996016	2650.80004882813
664.749399842249	2668.30004882813
665.459789198507	2660.89990234375
666.170091092458	2661
666.880305551784	2654.43334960938
667.590432604155	2659.69995117188
668.300472277216	2657.06665039063
669.01042459862	2657.33325195313
669.720289595993	2662.86669921875
670.430067296964	2651.16674804688
671.139757729146	2654.33325195313
671.849360920142	2662.13330078125
672.558876897549	2649.33325195313
673.268305688942	2664
673.977647321902	2651.66674804688
674.686901823982	2664.86669921875
675.396069222745	2647.53344726563
676.105149545725	2652.43334960938
676.81414282046	2654
677.523049074465	2644.86669921875
678.231868335251	2657.66674804688
678.940600630328	2647.30004882813
679.649245987172	2638.93334960938
680.35780443329	2631.2666015625
681.066275996125	2633.43334960938
681.77466070315	2642.19995117188
682.482958581809	2623.16674804688
683.191169659556	2629.30004882813
683.899293963803	2620.43334960938
684.60733152198	2614.5
685.315282361489	2633.2666015625
686.023146509742	2619.33325195313
686.730923994122	2627.43334960938
687.438614841998	2625.66674804688
688.146219080748	2624.96655273438
688.853736737737	2631.83325195313
689.561167840308	2629.06665039063
690.268512415792	2635.03344726563
690.975770491533	2631.89990234375
691.682942094835	2643.10009765625
692.390027253004	2628.53344726563
693.097025993363	2641.10009765625
693.803938343168	2620.33325195313
694.510764329722	2645.03344726563
695.217503980276	2640.80004882813
695.9241573221	2648.7666015625
696.63072438243	2646.03344726563
697.337205188513	2651.83325195313
698.043599767579	2638.86669921875
698.749908146834	2642.5
699.456130353494	2641.30004882813
700.162266414748	2641.46655273438
700.868316357798	2655.66674804688
701.574280209806	2653.63330078125
702.280157997948	2642.2666015625
702.985949749382	2644.56665039063
703.691655491252	2642.66674804688
704.397275250694	2642.19995117188
705.102809054837	2626.10009765625
705.808256930795	2635.63330078125
706.513618905686	2630.53344726563
707.218895006592	2621
707.924085260618	2626.30004882813
708.629189694824	2631.46655273438
709.334208336292	2609.60009765625
710.039141212057	2610.13330078125
710.743988349195	2615.36669921875
711.448749774726	2614.89990234375
712.153425515681	2629.19995117188
712.858015599075	2620.03344726563
713.562520051922	2610.63330078125
714.266938901217	2613.2333984375
714.971272173936	2618.36669921875
715.675519897077	2613.83325195313
716.379682097595	2617.13330078125
717.083758802453	2626.43334960938
717.787750038595	2637.33325195313
718.491655832963	2637
719.195476212478	2641.96655273438
719.899211204065	2641.80004882813
720.602860834625	2653.86669921875
721.306425131073	2639
722.009904120281	2647.83325195313
722.713297829139	2651.30004882813
723.416606284497	2612.69995117188
724.119829513234	2637.66674804688
724.822967542194	2625.66674804688
725.526020398215	2634.66674804688
726.228988108123	2632.89990234375
726.931870698739	2633.39990234375
727.63466819687	2641.83325195313
728.337380629327	2639.86669921875
729.040008022882	2639.69995117188
729.742550404337	2660.66674804688
730.445007800446	2665.06665039063
731.147380237972	2654.96655273438
731.84966774367	2658.63330078125
732.551870344277	2675.03344726563
733.253988066531	2680.53344726563
733.956020937138	2678.56665039063
734.65796898283	2683.2333984375
735.359832230293	2693.30004882813
736.061610706225	2704.93334960938
736.763304437305	2707.53344726563
737.464913450207	2704.19995117188
738.166437771599	2707.56665039063
738.867877428125	2709.7666015625
739.569232446433	2725.69995117188
740.270502853152	2724.96655273438
740.971688674921	2729.96655273438
741.672789938327	2732.7666015625
742.373806669988	2724.5
743.074738896511	2729.93334960938
743.775586644459	2736.86669921875
744.476349940422	2743
745.17702881095	2740.06665039063
745.877623282621	2728.46655273438
746.578133381957	2748.2666015625
747.278559135505	2736.80004882813
747.978900569793	2742.19995117188
748.679157711339	2743.36669921875
749.379330586641	2726.13330078125
750.0794192222	2745.36669921875
750.779423644508	2723.7333984375
751.479343880037	2716.2333984375
752.179179955261	2721
752.878931896634	2730.03344726563
753.578599730608	2717.33325195313
754.278183483618	2720.36669921875
754.977683182097	2728.89990234375
755.677098852465	2712.10009765625
756.376430521131	2717.13330078125
757.07567821449	2707.2666015625
757.774841958949	2714.19995117188
758.473921780873	2710.36669921875
759.172917706636	2701.39990234375
759.871829762612	2693.69995117188
760.570657975148	2712.66674804688
761.269402370572	2689.89990234375
761.96806297524	2681.83325195313
762.66663981546	2661.96655273438
763.365132917561	2684.80004882813
764.063542307824	2672.83325195313
764.761868012567	2644.46655273438
765.460110058069	2660.2333984375
766.158268470599	2642
766.856343276424	2647.60009765625
767.55433450181	2647.53344726563
768.252242172994	2653.69995117188
768.950066316215	2642.46655273438
769.64780695771	2631.39990234375
770.345464123687	2637.19995117188
771.043037840361	2642.56665039063
771.740528133929	2640.66674804688
772.437935030586	2649.06665039063
773.1352585565	2662.2666015625
773.832498737855	2665.80004882813
774.529655600803	2663.36669921875
775.226729171507	2674.33325195313
775.923719476093	2682.86669921875
776.62062654071	2684.89990234375
777.317450391468	2692.86669921875
778.014191054486	2678.33325195313
778.710848555868	2694.69995117188
779.407422921714	2675.69995117188
780.103914178108	2684.60009765625
780.800322351114	2686.03344726563
781.496647466815	2690.66674804688
782.192889551254	2698.96655273438
782.889048630491	2665.06665039063
783.585124730549	2692.46655273438
784.281117877468	2672.10009765625
784.977028097273	2667.46655273438
785.672855415956	2679.46655273438
786.368599859532	2655.03344726563
787.064261453981	2653.7666015625
787.759840225299	2651.33325195313
788.455336199433	2642.7666015625
789.150749402372	2629
789.84607986005	2624.2666015625
790.541327598425	2627.10009765625
791.236492643427	2631.69995117188
791.931575020975	2612.63330078125
792.62657475699	2620.7666015625
793.321491877375	2620.10009765625
794.016326408036	2614.69995117188
794.711078374848	2609.66674804688
795.405747803693	2619.33325195313
796.100334720443	2606.89990234375
796.794839150954	2598.2333984375
797.489261121072	2608.93334960938
798.183600656654	2612.16674804688
798.877857783511	2596.06665039063
799.57203252748	2603.89990234375
800.266124914366	2605.30004882813
800.960134969973	2589.86669921875
801.654062720095	2606.89990234375
802.347908190512	2595.43334960938
803.041671407007	2615.06665039063
803.735352395342	2608.5
804.428951181284	2621.83325195313
805.12246779056	2604.39990234375
805.815902248922	2613.89990234375
806.509254582093	2603.10009765625
807.202524815801	2612.7666015625
807.895712975749	2608.2333984375
808.58881908764	2623.19995117188
809.281843177157	2622.43334960938
809.974785270003	2627.53344726563
810.667645391826	2622.2666015625
811.360423568309	2622.46655273438
812.053119825096	2636.7333984375
812.745734187831	2635.66674804688
813.438266682161	2639.13330078125
814.130717333705	2637.46655273438
814.823086168076	2640.60009765625
815.515373210889	2642.03344726563
816.207578487748	2640.2666015625
816.899702024235	2649.16674804688
817.591743845928	2658.56665039063
818.283703978398	2645.86669921875
818.975582447225	2657.7333984375
819.667379277938	2653.46655273438
820.35909449609	2648.30004882813
821.050728127216	2641.03344726563
821.742280196848	2639.7666015625
822.433750730493	2634.7666015625
823.125139753662	2638.7333984375
823.816447291855	2631.03344726563
824.507673370549	2633.60009765625
825.198818015231	2606.13330078125
825.889881251374	2606.30004882813
826.580863104442	2600.7333984375
827.271763599872	2591.66674804688
827.962582763119	2582.39990234375
828.653320619618	2597.5
829.343977194791	2593.69995117188
830.034552514045	2579.16674804688
830.72504660279	2585.89990234375
831.415459486432	2573.89990234375
832.105791190354	2590.30004882813
832.79604173993	2582.2333984375
833.486211160532	2560.86669921875
834.17629947752	2572.13330078125
834.866306716248	2566.10009765625
835.556232902058	2564.16674804688
836.246078060281	2553.7333984375
836.935842216239	2559.60009765625
837.625525395254	2565.53344726563
838.315127622627	2561.60009765625
839.004648923652	2556.43334960938
839.694089323628	2557.06665039063
840.383448847822	2543.43334960938
841.072727521511	2553.7333984375
841.761925369946	2553.03344726563
842.451042418394	2544.89990234375
843.140078692075	2543.5
843.829034216243	2549.2333984375
844.517909016119	2545.96655273438
845.206703116904	2553.16674804688
845.895416543824	2551.80004882813
846.584049322062	2544.43334960938
847.272601476817	2544.19995117188
847.961073033249	2545.66674804688
848.649464016547	2548.66674804688
849.337774451864	2543.69995117188
850.026004364355	2547
850.714153779165	2548.66674804688
851.402222721422	2551.03344726563
852.090211216251	2552.89990234375
852.778119288776	2535.30004882813
853.4659469641	2540.96655273438
854.153694267314	2535.30004882813
854.841361223513	2558.89990234375
855.528947857783	2540.10009765625
856.216454195189	2545.5
856.903880260794	2544.06665039063
857.591226079641	2552.46655273438
858.27849167679	2548.7666015625
858.965677077272	2547.86669921875
859.652782306111	2546.03344726563
860.339807388328	2535
861.026752348915	2539.30004882813
861.713617212895	2538.2666015625
862.400402005248	2554.53344726563
863.087106750952	2549.30004882813
863.773731474988	2556.43334960938
864.460276202314	2538.16674804688
865.146740957882	2549.30004882813
865.833125766649	2544.7333984375
866.519430653541	2563.96655273438
867.205655643482	2549
867.891800761413	2547.03344726563
868.577866032225	2537.7333984375
869.263851480817	2540.06665039063
869.949757132104	2540.06665039063
870.635583010948	2535.63330078125
871.321329142234	2545.66674804688
872.00699555082	2550.86669921875
872.692582261571	2550.83325195313
873.37808929933	2534.7666015625
874.063516688943	2536.16674804688
874.748864455231	2541.30004882813
875.434132623022	2532.89990234375
876.119321217122	2543.53344726563
876.80443026235	2533.2666015625
877.489459783479	2534.5
878.174409805313	2538.66674804688
878.859280352625	2538.19995117188
879.544071450178	2536.66674804688
880.228783122741	2531.19995117188
880.913415395058	2534.93334960938
881.597968291876	2534.03344726563
882.282441837917	2518.46655273438
882.966836057924	2538.33325195313
883.651150976588	2537.80004882813
884.335386618638	2540.86669921875
885.019543008762	2531.13330078125
885.703620171653	2529.86669921875
886.387618131987	2532.2666015625
887.071536914444	2529.2666015625
887.755376543681	2536.2666015625
888.439137044354	2527.80004882813
889.122818441092	2525.63330078125
889.806420758563	2528.46655273438
890.489944021374	2531.89990234375
891.17338825415	2539.93334960938
891.856753481496	2526.5
892.540039728018	2541.10009765625
893.223247018304	2530.89990234375
893.906375376951	2535.19995117188
894.589424828519	2536.10009765625
895.272395397583	2534.39990234375
895.9552871087	2537.30004882813
896.638099986421	2529.96655273438
897.32083405528	2535.33325195313
898.003489339815	2540.7333984375
898.686065864547	2527.2333984375
899.368563653989	2529.13330078125
900.05098273265	2532.96655273438
900.73332312502	2530.06665039063
901.415584855594	2525.2333984375
902.09776794885	2530.80004882813
902.779872429265	2528.63330078125
903.461898321282	2536.93334960938
904.143845649382	2523.43334960938
904.825714437982	2538.80004882813
905.507504711537	2515.86669921875
906.189216494465	2532.66674804688
906.870849811185	2526.69995117188
907.55240468612	2532.93334960938
908.23388114366	2534.43334960938
908.915279208196	2530.80004882813
909.596598904118	2537.53344726563
910.277840255801	2533.39990234375
910.959003287608	2533.2666015625
911.640088023892	2521.93334960938
912.32109448903	2532.66674804688
913.002022707327	2526.66674804688
913.682872703143	2537.66674804688
914.363644500786	2527.69995117188
915.044338124572	2542.83325195313
915.724953598816	2533.53344726563
916.405490947812	2526.2666015625
917.08595019585	2541.66674804688
917.766331367211	2543.7333984375
918.446634486172	2530.7666015625
919.126859576979	2530.36669921875
919.807006663897	2542.66674804688
920.487075771186	2532.19995117188
921.167066923067	2544.5
921.846980143778	2531.66674804688
922.526815457533	2540.96655273438
923.206572888542	2544.33325195313
923.886252461025	2548.33325195313
924.565854199158	2541.33325195313
925.245378127137	2548.19995117188
925.924824269132	2561.93334960938
926.604192649339	2561.13330078125
927.28348329188	2553.66674804688
927.962696220933	2557.53344726563
928.641831460637	2567.5
929.320889035124	2569.46655273438
929.999868968515	2574.83325195313
930.678771284941	2580.83325195313
931.357596008509	2600.03344726563
932.036343163312	2605.46655273438
932.715012773449	2628.30004882813
933.393604863005	2647.53344726563
934.072119456057	2645.56665039063
934.750556576661	2669.36669921875
935.428916248893	2674
936.107198496784	2686.13330078125
936.785403344392	2690.30004882813
937.463530815739	2713
938.141580934859	2713.93334960938
938.819553725761	2743.33325195313
939.497449212455	2740
940.175267418943	2764.5
940.853008369217	2776.10009765625
941.530672087252	2801.10009765625
942.208258597034	2822.56665039063
942.88576792251	2829.03344726563
943.563200087657	2836.83325195313
944.240555116409	2854.63330078125
944.917833032714	2847.93334960938
945.595033860499	2861.39990234375
946.2721576237	2838.36669921875
946.949204346208	2842.89990234375
947.626174051953	2844.5
948.30306676482	2830.2666015625
948.979882508703	2848.2666015625
949.656621307485	2823.46655273438
950.333283185039	2832.2333984375
951.009868165216	2829.2333984375
951.686376271891	2831.89990234375
952.362807528901	2833.10009765625
953.03916196009	2824.89990234375
953.715439589288	2821.2666015625
954.391640440314	2824.39990234375
955.067764536986	2815.36669921875
955.74381190311	2826.33325195313
956.419782562481	2837.19995117188
957.095676538886	2829.63330078125
957.771493856112	2822.5
958.447234537921	2824.13330078125
959.122898608092	2835.7666015625
959.798486090369	2825.19995117188
960.473997008503	2842.5
961.149431386226	2824.5
961.824789247285	2826.39990234375
962.500070615388	2842.33325195313
963.175275514248	2830.89990234375
963.850403967579	2833.80004882813
964.525455999079	2856.43334960938
965.200431632428	2840.30004882813
965.875330891311	2853.39990234375
966.550153799403	2846.93334960938
967.224900380363	2857.19995117188
967.899570657855	2862.33325195313
968.574164655517	2856.33325195313
969.24868239699	2860.60009765625
969.923123905908	2856.69995117188
970.597489205892	2870.2666015625
971.27177832055	2843.7666015625
971.945991273505	2858.5
972.620128088335	2852.10009765625
973.29418878864	2865.5
973.968173398004	2871.2333984375
974.642081939996	2875.19995117188
975.315914438171	2882.86669921875
975.989670916094	2856.19995117188
976.663351397316	2864.03344726563
977.336955905378	2882.10009765625
978.010484463804	2864.56665039063
978.683937096118	2854.96655273438
979.357313825837	2865.69995117188
980.030614676472	2865.43334960938
980.703839671514	2860.36669921875
981.376988834455	2862.7666015625
982.050062188785	2865.03344726563
982.723059757969	2848.83325195313
983.395981565477	2847.66674804688
984.068827634767	2857.36669921875
984.741597989282	2842.53344726563
985.414292652472	2849.30004882813
986.086911647764	2842.53344726563
986.759454998581	2837.83325195313
987.431922728346	2837.53344726563
988.10431486046	2823.63330078125
988.776631418332	2810.30004882813
989.448872425341	2818.43334960938
990.121037904883	2790.93334960938
990.793127880332	2774.03344726563
991.465142375048	2753.10009765625
992.137081412394	2747.39990234375
992.808945015717	2741.7333984375
993.48073320837	2719.83325195313
994.152446013679	2712.56665039063
994.824083454977	2683.7666015625
995.495645555577	2670.89990234375
996.167132338785	2674.93334960938
996.838543827912	2644.53344726563
997.509880046252	2656.63330078125
998.181141017087	2639.93334960938
998.852326763699	2633.10009765625
999.523437309342	2619.30004882813
1000.1944726773	2643.33325195313
1000.86543289081	2613.56665039063
1001.53631797312	2616.19995117188
1002.20712794747	2611.93334960938
1002.87786283709	2596.10009765625
1003.5485226652	2609.39990234375
1004.21910745501	2595.80004882813
1004.88961722973	2616.2333984375
1005.56005201255	2583.86669921875
1006.23041182666	2585.16674804688
1006.90069669524	2584.2333984375
1007.57090664147	2579.33325195313
1008.24104168851	2582.06665039063
1008.9111018595	2567.60009765625
1009.58108717761	2565.2333984375
1010.25099766598	2569.19995117188
1010.92083334773	2577.93334960938
1011.59059424598	2561.30004882813
1012.26028038385	2569.36669921875
1012.92989178446	2568
1013.59942847091	2550
1014.26889046627	2550.16674804688
1014.93827779364	2541.2333984375
1015.60759047608	2542.36669921875
1016.27682853668	2547.93334960938
1016.94599199848	2543.30004882813
1017.61508088455	2544.06665039063
1018.28409521791	2539.69995117188
1018.95303502162	2526.10009765625
1019.62190031868	2535.06665039063
1020.29069113213	2523.30004882813
1020.95940748498	2516.2333984375
1021.62804940023	2532.7666015625
1022.29661690087	2507.66674804688
1022.96511000988	2509.2666015625
1023.63352875027	2509.7666015625
1024.30187314498	2517.03344726563
1024.97014321699	2506.46655273438
1025.63833898925	2499.80004882813
1026.3064604847	2509.5
1026.9745077263	2505.30004882813
1027.64248073695	2506.33325195313
1028.3103795396	2511.7333984375
1028.97820415717	2500.80004882813
1029.64595461253	2500.7333984375
1030.31363092861	2495.10009765625
1030.9812331283	2492.69995117188
1031.64876123448	2488.96655273438
1032.31621527001	2496.43334960938
1032.98359525779	2492.10009765625
1033.65090122065	2491.93334960938
1034.31813318144	2487.86669921875
1034.98529116303	2496.16674804688
1035.65237518824	2489.86669921875
1036.3193852799	2488.96655273438
1036.98632146083	2480.2666015625
1037.65318375384	2477.66674804688
1038.31997218173	2482.46655273438
1038.98668676731	2474
1039.65332753335	2475.2333984375
1040.31989450265	2481.66674804688
1040.98638769797	2485.19995117188
1041.65280714207	2482.46655273438
1042.31915285773	2484.43334960938
1042.98542486766	2472.30004882813
1043.65162319464	2463.69995117188
1044.31774786138	2471.96655273438
1044.98379889061	2472.89990234375
1045.64977630505	2471.7666015625
1046.3156801274	2472.39990234375
1046.98151038038	2482.16674804688
1047.64726708667	2476.46655273438
1048.31295026895	2476.69995117188
1048.97855994991	2460.10009765625
1049.64409615221	2476.69995117188
1050.30955889852	2473.16674804688
1050.97494821149	2476.93334960938
1051.64026411378	2458.36669921875
1052.30550662801	2467.19995117188
1052.9706757768	2465.2333984375
1053.6357715828	2470.10009765625
1054.30079406862	2455.53344726563
1054.96574325686	2465.69995117188
1055.63061917012	2459.83325195313
1056.29542183099	2459.46655273438
1056.96015126205	2472.36669921875
1057.62480748589	2464.36669921875
1058.28939052507	2453.7333984375
1058.95390040214	2447.56665039063
1059.61833713967	2460.30004882813
1060.28270076019	2471.69995117188
1060.94699128624	2462.2333984375
1061.61120874035	2455.89990234375
1062.27535314506	2465.89990234375
1062.93942452285	2455.33325195313
1063.60342289624	2454
1064.26734828774	2468.86669921875
1064.93120071982	2459.16674804688
1065.59498021498	2458.83325195313
1066.25868679568	2456.10009765625
1066.92232048439	2457.33325195313
1067.58588130357	2475.83325195313
1068.24936927567	2455.33325195313
1068.91278442313	2466.7666015625
1069.5761267684	2454.10009765625
1070.23939633389	2453.43334960938
1070.90259314204	2456.10009765625
1071.56571721524	2465.2666015625
1072.22876857591	2453.30004882813
1072.89174724643	2460.30004882813
1073.55465324921	2469.53344726563
1074.21748660662	2465.53344726563
1074.88024734103	2450.2666015625
1075.54293547481	2454.93334960938
1076.20555103032	2460.7333984375
1076.86809402991	2475.2333984375
1077.53056449592	2465.60009765625
1078.19296245068	2454.19995117188
1078.85528791653	2469.10009765625
1079.51754091578	2465.5
1080.17972147075	2466.5
1080.84182960373	2460.43334960938
1081.50386533702	2456.13330078125
1082.16582869292	2462.39990234375
1082.82771969371	2449.36669921875
1083.48953836164	2463.16674804688
1084.151284719	2461.03344726563
1084.81295878805	2457.19995117188
1085.47456059102	2462.7666015625
1086.13609015016	2468.93334960938
1086.79754748771	2476.39990234375
1087.45893262589	2467.13330078125
1088.12024558693	2474.2666015625
1088.78148639303	2471.13330078125
1089.4426550664	2457.86669921875
1090.10375162923	2462.7666015625
1090.76477610373	2457.43334960938
1091.42572851205	2468.06665039063
1092.08660887639	2456.5
1092.74741721889	2470.7333984375
1093.40815356173	2467.03344726563
1094.06881792706	2474.13330078125
1094.72941033701	2464.2333984375
1095.38993081372	2454.13330078125
1096.05037937931	2462.53344726563
1096.71075605592	2476.7333984375
1097.37106086565	2464.43334960938
1098.03129383061	2465.10009765625
1098.69145497288	2470.5
1099.35154431456	2472.36669921875
1100.01156187774	2457.39990234375
1100.6715076845	2464.46655273438
1101.33138175687	2460.46655273438
