-62.8802656760145	1572.23327636719
-62.0712801655087	1572.46667480469
-61.2624144408879	1571.80004882813
-60.4536684613764	1571.96667480469
-59.6450421861946	1573
-58.8365355746153	1572.93334960938
-58.0281485858832	1573.03332519531
-57.2198811793115	1572.66662597656
-56.4117333141813	1573.93334960938
-55.6037049498382	1572.40002441406
-54.7957960456036	1573.09997558594
-53.9880065608474	1572.36669921875
-53.1803364549354	1572.06665039063
-52.3727856872778	1572.69995117188
-51.5653542172727	1572.53332519531
-50.7580420043586	1572.83337402344
-49.9508490079698	1573.23327636719
-49.143775187589	1571.80004882813
-48.3368205026788	1574.69995117188
-47.5299849127581	1585.56665039063
-46.7232683773338	1613.19995117188
-45.9166708559529	1574.16662597656
-45.1101923081504	1573.83337402344
-44.3038326935136	1573.26672363281
-43.4975919716136	1571.90002441406
-42.6914701020778	1572.30004882813
-41.8854670445174	1573.5
-41.07958275858	1574.03332519531
-40.2738172039169	1572.40002441406
-39.4681703402036	1573.76672363281
-38.6626421271476	1572.03332519531
-37.8572325244484	1572.5
-37.0519414918416	1573.96667480469
-36.2467689890625	1573.46667480469
-35.441714975895	1572.66662597656
-34.6367794121022	1571.90002441406
-33.8319622574879	1572
-33.0272634718794	1571.16662597656
-32.2226830151083	1573.16662597656
-31.4182208470059	1574.09997558594
-30.6138769274635	1573
-29.8096512163686	1573.30004882813
-29.0055436736122	1573.43334960938
-28.2015542591217	1573.40002441406
-27.397682932832	1573.80004882813
-26.5939296547063	1573.13330078125
-25.7902943847235	1572.69995117188
-24.9867770828543	1573.59997558594
-24.1833777091256	1572.73327636719
-23.3800962235519	1573.86669921875
-22.5769325861837	1573.5
-21.7738867570794	1573.36669921875
-20.9709586963133	1573.13330078125
-20.1681483639916	1572.86669921875
-19.365455720212	1573.53332519531
-18.5628807251165	1573.76672363281
-17.7604233388427	1572.26672363281
-16.9580835215601	1573.40002441406
-16.1558612334539	1573.06665039063
-15.3537564347134	1573.13330078125
-14.5517690855595	1573.56665039063
-13.7498991462288	1572.16662597656
-12.94814657697	1574.43334960938
-12.1465113380514	1573.86669921875
-11.3449933897571	1573.26672363281
-10.543592692387	1573.86669921875
-9.74230920626065	1575.03332519531
-8.9411428917136	1573.73327636719
-8.14009370910902	1572.5
-7.33916161880982	1572.23327636719
-6.53834658120667	1573.93334960938
-5.73764855670195	1572.80004882813
-4.9370675057178	1573
-4.13660338870815	1572.93334960938
-3.33625616610644	1572.63330078125
-2.53602579839399	1573.43334960938
-1.73591224606778	1574.43334960938
-0.93591546962846	1573.36669921875
-0.136035429612425	1574.33337402344
0.663727913452362	1578.96667480469
1.46337459899013	1604.96667480469
2.26290466644961	1640.69995117188
3.06231815521169	1636.86669921875
3.86161510468576	1596.43334960938
4.66079555422945	1577.26672363281
5.45985954321688	1574.46667480469
6.25880711096637	1573.36669921875
7.05763829681681	1572.73327636719
7.85635314006331	1573.46667480469
8.65495168000148	1573.59997558594
9.45343395589124	1572.96667480469
10.251800007001	1573.03332519531
11.0500498725555	1572.63330078125
11.848183591788	1574.09997558594
12.6462012038881	1573.63330078125
13.4441027480499	1572.76672363281
14.2418882634437	1572.19995117188
15.0395577892247	1574.06665039063
15.8371113645201	1572.26672363281
16.6345490284539	1573
17.4318708201263	1574.03332519531
18.2290767786302	1572.69995117188
19.0261669430227	1574.13330078125
19.8231413523778	1573.93334960938
20.6200000456976	1574
21.4167430620288	1573.96667480469
22.2133704403548	1572.76672363281
23.0098822196713	1573.73327636719
23.8062784389426	1572.90002441406
24.6025591371175	1574.53332519531
25.3987243531334	1573.73327636719
26.1947741259042	1572.93334960938
26.9907084943443	1574.36669921875
27.7865274973208	1573.93334960938
28.5822311737091	1572.63330078125
29.3778195623575	1573.33337402344
30.1732927021065	1572.46667480469
30.9686506317656	1572.90002441406
31.7638933901446	1572.80004882813
32.5590210160179	1572.66662597656
33.3540335481646	1574.19995117188
34.1489310253285	1573.69995117188
34.9437134862418	1573.56665039063
35.7383809696253	1572.69995117188
36.5329335141808	1573.69995117188
37.3273711585903	1574.56665039063
38.1216939415287	1572.90002441406
38.9159019016394	1572.30004882813
39.7099950775626	1572.90002441406
40.5039735079151	1572.93334960938
41.2978372312983	1572.59997558594
42.0915862862985	1573.59997558594
42.8852207114822	1572.33337402344
43.6787405454012	1572.73327636719
44.4721458265996	1572.23327636719
45.2654365935904	1572.90002441406
46.058612884867	1571.76672363281
46.8516747389399	1573.69995117188
47.6446221942481	1572.56665039063
48.4374552892714	1573.23327636719
49.2301740624383	1573.59997558594
50.0227785521661	1573.26672363281
50.8152687968608	1573.53332519531
51.6076448349091	1573.23327636719
52.3999067046866	1573.30004882813
53.1920544445376	1573
53.9840880928151	1573.36669921875
54.7760076878371	1574.19995117188
55.567813267906	1573.93334960938
56.3595048713054	1574.96667480469
57.1510825363196	1575.86669921875
57.9425463012015	1574.86669921875
58.733896204193	1576.09997558594
59.5251322835168	1577.83337402344
60.3162545773685	1580.16662597656
61.1072631239722	1583.09997558594
61.8981579614694	1586.63330078125
62.6889391280379	1590.90002441406
63.4796066618127	1597.36669921875
64.2701606009215	1605.16662597656
65.0606009834849	1613.56665039063
65.8509278475725	1627.93334960938
66.6411412312945	1637.93334960938
67.4312411726863	1656.19995117188
68.221227709804	1677.63330078125
69.0111008806766	1697.63330078125
69.8008607233221	1719.16662597656
70.5905072757234	1751.33337402344
71.3800405758802	1781.56665039063
72.1694606617374	1814.40002441406
72.9587675712524	1858.66662597656
73.747961342356	1907.90002441406
74.5370420129716	1949.63330078125
75.3260096209917	2005.80004882813
76.1148642042977	2057.93334960938
76.9036058007681	2123.46655273438
77.6922344482463	2190.53344726563
78.4807501845685	2242.10009765625
79.2691530475681	2298.33325195313
80.0574430750156	2341.39990234375
80.845620304738	2383
81.6336847744759	2423.36669921875
82.4216365220025	2451.10009765625
83.2094755850442	2495.7666015625
83.9972020013364	2504.33325195313
84.7848158085834	2510.60009765625
85.5723170444668	2540.43334960938
86.3597057466849	2541.89990234375
87.1469819528733	2548.2666015625
87.9341457006927	2559.46655273438
88.7211970277526	2542.36669921875
89.5081359716837	2549.16674804688
90.2949625700579	2572.86669921875
91.081676860484	2569.7666015625
91.8682788805079	2579.19995117188
92.6547686676808	2584.93334960938
93.4411462595307	2593.16674804688
94.2274116935869	2607.80004882813
95.0135650073277	2618.5
95.7996062382647	2624.93334960938
96.5855354238424	2635.80004882813
97.3713526015265	2640.56665039063
98.157057808752	2653.43334960938
98.9426510829309	2656.93334960938
99.7281324614842	2662.2333984375
100.513501981782	2696.19995117188
101.298759681221	2682.39990234375
102.083905597144	2704.43334960938
102.868939766891	2701.7333984375
103.653862227798	2710.66674804688
104.438673017168	2699.60009765625
105.223372172302	2716.2666015625
106.007959730469	2700.7666015625
106.792435728938	2699.63330078125
107.576800204962	2716.19995117188
108.361053195763	2704.36669921875
109.145194738568	2714.56665039063
109.929224870558	2727.93334960938
110.71314362894	2710
111.496951050867	2727.83325195313
112.280647173509	2720.63330078125
113.064232033987	2713.96655273438
113.847705669429	2720.60009765625
114.631068116938	2721.69995117188
115.414319413616	2727.03344726563
116.197459596525	2733.30004882813
116.980488702734	2756.03344726563
117.76340676928	2772.7333984375
118.546213833194	2759.93334960938
119.328909931491	2778.46655273438
120.111495101165	2806.03344726563
120.893969379195	2794.33325195313
121.676332802552	2807.39990234375
122.458585408185	2833.80004882813
123.240727233033	2851.56665039063
124.022758314001	2872.86669921875
124.804678688012	2875.33325195313
125.586488391943	2871.43334960938
126.368187462664	2878.80004882813
127.149775937045	2887.53344726563
127.931253851906	2885.7666015625
128.712621244105	2899.93334960938
129.493878150424	2896.10009765625
130.275024607679	2902.7666015625
131.05606065263	2910.2333984375
131.836986322054	2922.5
132.617801652702	2933.2666015625
133.398506681303	2947.10009765625
134.179101444575	2951.60009765625
134.959585979225	2972.10009765625
135.739960321933	2976.63330078125
136.520224509383	2963.83325195313
137.30037857821	2979.63330078125
138.080422565087	2991.60009765625
138.860356506612	2980.96655273438
139.640180439409	2995.93334960938
140.419894400069	2999.7666015625
141.199498425174	2998.60009765625
141.978992551284	3002.83325195313
142.758376814962	3012.89990234375
143.537651252719	3016.2666015625
144.3168159011	3057.89990234375
145.095870796584	3045.66674804688
145.874815975682	3056.30004882813
146.653651474851	3064.2666015625
147.432377330548	3094.89990234375
148.210993579225	3091.43334960938
148.989500257303	3101.46655273438
149.767897401202	3103.83325195313
150.546185047308	3113.66674804688
151.324363232007	3112.19995117188
152.102431991664	3100.7666015625
152.880391362628	3115.69995117188
153.658241381243	3092.89990234375
154.435982083826	3090.19995117188
155.213613506675	3076.5
155.991135686104	3079.83325195313
156.768548658349	3069.10009765625
157.545852459702	3049.83325195313
158.323047126388	3043.13330078125
159.100132694662	3042.39990234375
159.877109200719	3027.7666015625
160.653976680759	3030.16674804688
161.430735170968	3007.83325195313
162.207384707527	3029.96655273438
162.98392532658	3011.66674804688
163.760357064266	2999.5
164.536679956709	3003.96655273438
165.312894040019	2999.30004882813
166.08899935029	3005.30004882813
166.86499592361	3009.36669921875
167.64088379603	2989.13330078125
168.416663003602	2997.56665039063
169.19233358237	2995.69995117188
169.967895568343	2972.7666015625
170.743348997518	2987.53344726563
171.518693905903	2985.10009765625
172.293930329461	3004.96655273438
173.06905830415	2998.19995117188
173.844077865923	2999.83325195313
174.618989050701	3034.83325195313
175.393791894402	3048.53344726563
176.168486432918	3028.53344726563
176.943072702149	3055.69995117188
177.717550737943	3071.2666015625
178.491920576174	3073.30004882813
179.266182252671	3081.13330078125
180.040335803267	3077.06665039063
180.814381263757	3076.46655273438
181.58831866996	3072.66674804688
182.362148057631	3084.2333984375
183.135869462553	3078.43334960938
183.909482920467	3081.30004882813
184.682988467117	3077.19995117188
185.456386138212	3083.39990234375
186.22967596947	3094.16674804688
187.002857996574	3099.30004882813
187.775932255208	3102.10009765625
188.548898781025	3116.60009765625
189.32175760968	3127.03344726563
190.094508776801	3143.93334960938
190.867152318005	3142.83325195313
191.639688268901	3130.2333984375
192.412116665058	3109.5
193.184437542076	3097
193.9566509355	3099.10009765625
194.728756880869	3068.86669921875
195.500755413713	3061.13330078125
196.272646569558	3032.89990234375
197.044430383894	3044.80004882813
197.816106892204	3039.39990234375
198.587676129964	3034
199.359138132634	3013.10009765625
200.130492935633	3030.39990234375
200.901740574413	3006.16674804688
201.672881084377	3019.2333984375
202.443914500921	3005.5
203.214840859416	3004.2666015625
203.985660195246	3025.30004882813
204.756372543762	3009.56665039063
205.526977940299	3015.7333984375
206.297476420174	3029.06665039063
207.067868018711	3015.5
207.838152771188	3038.83325195313
208.608330712894	3029.63330078125
209.378401879107	3033.06665039063
210.148366305059	3040.86669921875
210.918224025992	3026.96655273438
211.687975077139	3028.89990234375
212.457619493685	3026.2666015625
213.227157310848	3015.43334960938
213.996588563789	3008.39990234375
214.76591328768	3005.43334960938
215.535131517664	3014.43334960938
216.304243288882	3007.06665039063
217.073248636458	3004.19995117188
217.842147595492	3004.16674804688
218.610940201072	2993.06665039063
219.379626488284	3007.36669921875
220.148206492193	2996.66674804688
220.91668024783	3011.30004882813
221.685047790247	2998.7666015625
222.453309154456	3008.96655273438
223.221464375454	3010.7666015625
223.989513488251	3017.33325195313
224.75745652781	3005.16674804688
225.525293529093	3005.96655273438
226.293024527053	3015.33325195313
227.060649556623	3020.39990234375
227.828168652717	3023.2333984375
228.595581850241	3021.89990234375
229.362889184086	3028.7666015625
230.130090689128	3018.96655273438
230.89718640023	2998.33325195313
231.664176352239	2998.39990234375
232.431060579987	2996.56665039063
233.197839118289	2982.86669921875
233.964512001954	2972.89990234375
234.731079265774	2981.7666015625
235.497540944521	2964.39990234375
236.263897072963	2960.19995117188
237.030147685833	2950.80004882813
237.796292817881	2944.30004882813
238.562332503806	2944.7666015625
239.328266778331	2924.13330078125
240.094095676137	2928.2333984375
240.859819231909	2916.80004882813
241.62543748029	2932.46655273438
242.390950455954	2916.53344726563
243.156358193514	2897
243.921660727599	2898.16674804688
244.68685809281	2891.69995117188
245.451950323743	2905.13330078125
246.216937454966	2901.16674804688
246.981819521049	2897.60009765625
247.746596556546	2900.60009765625
248.511268595976	2908.16674804688
249.275835673871	2908.13330078125
250.04029782473	2892.69995117188
250.804655083059	2899.30004882813
251.568907483323	2884.93334960938
252.333055059988	2873.69995117188
253.097097847503	2880.66674804688
253.861035880304	2888.5
254.62486919282	2882.56665039063
255.388597819456	2878.39990234375
256.152221794596	2885.53344726563
256.91574115264	2871.89990234375
257.679155927928	2873.33325195313
258.442466154831	2878.2333984375
259.205671867672	2861.86669921875
259.968773100793	2864.2666015625
260.731769888482	2861.36669921875
261.494662265052	2878.36669921875
262.257450264777	2869.63330078125
263.020133921935	2859.80004882813
263.782713270754	2863.30004882813
264.545188345504	2858.53344726563
265.307559180386	2847.69995117188
266.069825809631	2851.63330078125
266.831988267425	2853.56665039063
267.594046587959	2859.16674804688
268.356000805395	2856.63330078125
269.117850953891	2838.39990234375
269.879597067602	2844.63330078125
270.641239180637	2843.69995117188
271.402777327131	2846.30004882813
272.164211541161	2856.13330078125
272.925541856831	2848.89990234375
273.686768308211	2859.5
274.44789092936	2861.66674804688
275.208909754314	2855.83325195313
275.969824817121	2864.86669921875
276.730636151784	2856.46655273438
277.491343792312	2844.2666015625
278.251947772692	2873.03344726563
279.012448126904	2860.2333984375
279.77284488891	2860.36669921875
280.533138092657	2878.83325195313
281.293327772081	2862.5
282.053413961105	2877.7333984375
282.813396693626	2895.83325195313
283.573276003551	2912.86669921875
284.333051924748	2932.16674804688
285.092724491092	2923.60009765625
285.852293736427	2919.66674804688
286.611759694607	2908.5
287.371122399433	2907.66674804688
288.13038188474	2896.7666015625
288.889538184304	2892.96655273438
289.648591331919	2893.30004882813
290.407541361362	2897.63330078125
291.166388306376	2884.7333984375
291.925132200712	2905.89990234375
292.683773078096	2908.30004882813
293.44231097225	2896.7333984375
294.200745916861	2910.19995117188
294.959077945631	2928.16674804688
295.717307092225	2929.7333984375
296.475433390307	2925.5
297.233456873527	2921.89990234375
297.991377575513	2928.89990234375
298.749195529897	2949.69995117188
299.506910770276	2949.83325195313
300.264523330243	2957.89990234375
301.022033243374	2959.19995117188
301.779440543239	2989.96655273438
302.536745263392	2994.66674804688
303.29394743736	2995.80004882813
304.051047098689	3000.96655273438
304.808044280878	3021.80004882813
305.564939017422	3024.36669921875
306.321731341806	3026.96655273438
307.07842128751	3022.5
307.835008887983	3018.60009765625
308.59149417667	3003.7666015625
309.347877187004	2993.10009765625
310.104157952396	3001.13330078125
310.860336506259	3000.2666015625
311.616412881976	2988.80004882813
312.372387112933	3001.30004882813
313.128259232476	3009.7333984375
313.88402927397	2996.10009765625
314.639697270744	3003.30004882813
315.395263256123	2996.86669921875
316.150727263413	2990.39990234375
316.906089325921	2975.89990234375
317.661349476911	2982.83325195313
318.416507749671	2984.56665039063
319.171564177441	2991.66674804688
319.926518793482	2981.16674804688
320.681371630998	2966.2666015625
321.436122723229	2974.7666015625
322.19077210336	2976.36669921875
322.945319804596	2961.56665039063
323.699765860095	2953.36669921875
324.454110303027	2953.16674804688
325.208353166543	2953
325.962494483781	2964.5
326.716534287853	2964.10009765625
327.470472611881	2962.96655273438
328.224309488948	2957.96655273438
328.97804495215	2952.7666015625
329.73167903455	2953.06665039063
330.485211769199	2952.5
331.238643189142	2974.46655273438
331.99197332741	2981.36669921875
332.745202217023	2966.33325195313
333.498329890974	2985.80004882813
334.251356382268	2983.10009765625
335.00428172386	2980.39990234375
335.757105948733	2973.66674804688
336.509829089831	2980.7333984375
337.262451180083	2984.53344726563
338.01497225242	2991.83325195313
338.767392339755	2987.89990234375
339.519711474974	2994.30004882813
340.271929690979	3001.86669921875
341.024047020618	2994.56665039063
341.776063496779	2991.80004882813
342.527979152272	2999.89990234375
343.279794019952	3009.46655273438
344.031508132625	3015.2333984375
344.783121523104	3025.06665039063
345.534634224173	3013.46655273438
346.286046268628	3005.5
347.03735768921	3036.7333984375
347.788568518696	3010.10009765625
348.53967878981	3019.93334960938
349.29068853528	3017.33325195313
350.041597787827	3024.89990234375
350.79240658014	3040.46655273438
351.543114944923	3047.39990234375
352.293722914834	3051.69995117188
353.044230522551	3052.33325195313
353.794637800701	3050.2666015625
354.544944781933	3063
355.295151498867	3068.69995117188
356.045257984108	3071.69995117188
356.795264270262	3063.60009765625
357.545170389901	3075.86669921875
358.294976375607	3087.33325195313
359.044682259922	3107.16674804688
359.794288075399	3104
360.54379385457	3110.83325195313
361.293199629947	3128.86669921875
362.04250543405	3142.16674804688
362.79171129935	3153.96655273438
363.540817258351	3190.60009765625
364.289823343495	3188.60009765625
365.03872958725	3210.5
365.787536022048	3242.66674804688
366.536242680329	3272.36669921875
367.284849594499	3312.53344726563
368.033356796962	3339.89990234375
368.781764320094	3374
369.530072196302	3445.13330078125
370.278280457919	3486.36669921875
371.026389137312	3560
371.774398266814	3624.63330078125
372.522307878752	3733.93334960938
373.270118005429	3846.13330078125
374.017828679145	4004.36669921875
374.765439932199	4159.66650390625
375.512951796856	4334.56689453125
376.260364305385	4565.86669921875
377.007677490008	4888.2333984375
377.754891382986	5324.60009765625
378.502006016533	5992.466796875
379.249021422861	7054.83349609375
379.995937634157	8442.43359375
380.742754682616	9938.5
381.489472600403	11053.966796875
382.236091419679	11247.3330078125
382.982611172583	10442.3330078125
383.729031891253	8990.900390625
384.475353607811	7415.60009765625
385.221576354359	6034.89990234375
385.967700162992	5053.5
386.713725065802	4427.2333984375
387.459651094842	4017.2333984375
388.205478282181	3784.5
388.951206659853	3662.56665039063
389.696836259896	3596.16674804688
390.442367114332	3557.06665039063
391.18779925515	3540
391.933132714366	3557.39990234375
392.678367523939	3600.63330078125
393.423503715858	3639.10009765625
394.168541322056	3710.5
394.913480374495	3820.60009765625
395.658320905081	3951.93334960938
396.403062945756	4149.033203125
397.147706528413	4420.2333984375
397.89225168494	4745.033203125
398.636698447223	5235.93310546875
399.381046847131	5928.66650390625
400.125296916507	6856.10009765625
400.869448687208	8146.43310546875
401.613502191047	9642.533203125
402.357457459854	11203.6669921875
403.101314525419	12686.3662109375
403.845073419553	13819.099609375
404.588734174014	14254.8662109375
405.332296820579	13885.6337890625
406.075761390996	12830.1669921875
406.819127917025	11236.466796875
407.562396430365	9517.7333984375
408.305566962747	7958.86669921875
409.048639545884	6716.56689453125
409.79161421145	5843.7666015625
410.534490991132	5245.033203125
411.277269916601	4822.16650390625
412.019951019504	4499.2998046875
412.762534331484	4284.86669921875
413.505019884163	4094.60009765625
414.247407709166	3976.30004882813
414.989697838098	3841.39990234375
415.731890302547	3750.06665039063
416.473985134093	3654.66674804688
417.215982364291	3609.39990234375
417.957882024722	3563.69995117188
418.699684146901	3528.2333984375
419.44138876237	3494.86669921875
420.182995902647	3466.10009765625
420.92450559923	3409.69995117188
421.665917883614	3402.19995117188
422.407232787286	3391.56665039063
423.1484503417	3359.7666015625
423.889570578319	3333.36669921875
424.630593528589	3301.16674804688
425.371519223938	3302.69995117188
426.112347695776	3302.36669921875
426.853078975517	3285.36669921875
427.593713094549	3285.2666015625
428.33425008426	3290.2666015625
429.074689976016	3288.36669921875
429.815032801174	3285.7333984375
430.555278591075	3265.06665039063
431.295427377053	3297.2333984375
432.035479190425	3289.46655273438
432.775434062504	3321.66674804688
433.515292024581	3323.2333984375
434.255053107939	3336.13330078125
434.994717343853	3360.80004882813
435.734284763569	3356.36669921875
436.473755398347	3381.39990234375
437.213129279415	3391.60009765625
437.952406437988	3402.19995117188
438.691586905289	3421.19995117188
439.430670712505	3437.89990234375
440.169657890821	3451.7666015625
440.908548471419	3471.2333984375
441.647342485448	3492.03344726563
442.386039964063	3525
443.124640938399	3529.7666015625
443.863145439578	3574.2666015625
444.601553498714	3586.7666015625
445.339865146909	3624.2333984375
446.078080415243	3668.86669921875
446.816199334798	3681.2333984375
447.55422193663	3717.80004882813
448.292148251798	3756.36669921875
449.029978311342	3771.06665039063
449.767712146277	3774.03344726563
450.505349787637	3781.06665039063
451.242891266397	3751.19995117188
451.980336613571	3731.7666015625
452.717685860128	3695.30004882813
453.454939037037	3672.93334960938
454.192096175247	3647.36669921875
454.929157305714	3596.33325195313
455.666122459351	3597.5
456.402991667088	3551.39990234375
457.139764959817	3540.16674804688
457.87644236845	3506.63330078125
458.613023923856	3485.06665039063
459.349509656917	3464.06665039063
460.085899598469	3469.10009765625
460.822193779379	3443.19995117188
461.55839223047	3441.46655273438
462.294494982574	3419.69995117188
463.030502066492	3397.2666015625
463.766413513017	3355.93334960938
464.502229352947	3317.60009765625
465.237949617054	3288.7333984375
465.97357433608	3236.63330078125
466.709103540808	3179.83325195313
467.444537261952	3113.60009765625
468.179875530237	3065.10009765625
468.915118376397	3003.16674804688
469.650265831115	2931.30004882813
470.385317925091	2889.56665039063
471.120274689003	2855.30004882813
471.855136153509	2787
472.589902349272	2754.06665039063
473.32457330693	2721.69995117188
474.059149057119	2723.46655273438
474.79362963045	2679.66674804688
475.528015057532	2687.10009765625
476.262305368964	2652.93334960938
476.996500595326	2640.56665039063
477.730600767187	2652.39990234375
478.464605915109	2637.80004882813
479.198516069647	2627.69995117188
479.932331261319	2637.7333984375
480.666051520664	2652.56665039063
481.399676878186	2642.83325195313
482.133207364394	2638.2666015625
482.866643009762	2647.10009765625
483.599983844782	2644.2666015625
484.333229899901	2647.2333984375
485.066381205595	2634.43334960938
485.799437792281	2645.43334960938
486.532399690403	2633.96655273438
487.265266930378	2648.56665039063
487.99803954261	2646.89990234375
488.730717557487	2638.96655273438
489.463301005397	2664.19995117188
490.195789916709	2667.83325195313
490.928184321792	2657.80004882813
491.660484250967	2678.2333984375
492.392689734594	2676.83325195313
493.124800802986	2674.7333984375
493.856817486452	2690.16674804688
494.58873981531	2691.39990234375
495.320567819823	2699.53344726563
496.052301530289	2693.7333984375
496.783940976952	2705.30004882813
497.515486190092	2721.56665039063
498.246937199921	2713.83325195313
498.978294036689	2733.69995117188
499.709556730602	2722.5
500.440725311885	2729.16674804688
501.171799810713	2760.86669921875
501.902780257284	2773.13330078125
502.633666681754	2786.39990234375
503.364459114302	2816.13330078125
504.095157585053	2832.06665039063
504.825762124168	2865.96655273438
505.556272761754	2892.7333984375
506.286689527934	2931.19995117188
507.017012452811	2976.89990234375
507.747241566469	3019.33325195313
508.477376898986	3077.83325195313
509.207418480438	3149.86669921875
509.937366340876	3245.03344726563
510.667220510335	3327.13330078125
511.396981018857	3441
512.126647896458	3547.2666015625
512.856221173163	3715.13330078125
513.585700878942	3884.7666015625
514.315087043803	4147.93310546875
515.044379697715	4416.93310546875
515.773578870639	4752
516.502684592527	5190.33349609375
517.231696893324	5643.86669921875
517.960615802948	6205.43310546875
518.689441351322	6839.93310546875
519.418173568352	7466.86669921875
520.146812483938	8062.2666015625
520.875358127946	8565.3662109375
521.603810530268	8894.466796875
522.332169720741	8948.5
523.060435729237	8763.7666015625
523.788608585567	8464.8662109375
524.516688319583	8085.86669921875
525.244674961073	7565.86669921875
525.97256853986	7126.60009765625
526.700369085727	6663.13330078125
527.428076628453	6287.66650390625
528.155691197806	5928.2333984375
528.88321282354	5600.39990234375
529.610641535404	5354.7333984375
530.337977363139	5129.5
531.065220336448	4915.89990234375
531.792370485059	4737.36669921875
532.51942783867	4566.7666015625
533.246392426952	4435.7666015625
533.973264279613	4298.033203125
534.700043426288	4215.033203125
535.426729896655	4122.39990234375
536.153323720336	4032.5
536.879824926969	3954.83325195313
537.606233546188	3897
538.332549607593	3835.5
539.058773140773	3761.89990234375
539.784904175324	3711.36669921875
540.510942740812	3677.36669921875
541.236888866812	3643.19995117188
541.962742582867	3595.16674804688
542.688503918518	3557.33325195313
543.414172903305	3535.10009765625
544.139749566731	3514.86669921875
544.865233938318	3476.5
545.59062604755	3458.63330078125
546.315925923922	3450.63330078125
547.041133596897	3421.30004882813
547.766249095948	3400.46655273438
548.491272450518	3394.33325195313
549.216203690043	3355.7333984375
549.941042843959	3349.2333984375
550.665789941684	3347.93334960938
551.390445012612	3354.13330078125
552.115008086147	3328.2666015625
552.839479191678	3343.7333984375
553.563858358566	3317.56665039063
554.288145616178	3308.89990234375
555.012340993857	3326.30004882813
555.736444520946	3311.89990234375
556.460456226776	3311.86669921875
557.184376140661	3311.03344726563
557.908204291912	3307.36669921875
558.63194070981	3318.86669921875
559.355585423641	3326.03344726563
560.079138462681	3333.06665039063
560.802599856191	3319.03344726563
561.525969633418	3334.13330078125
562.249247823596	3339.7666015625
562.972434455954	3341.93334960938
563.695529559719	3356.46655273438
564.418533164078	3334.83325195313
565.14144529824	3346.30004882813
565.864265991379	3341.46655273438
566.586995272669	3329.06665039063
567.309633171277	3310.5
568.032179716338	3312.39990234375
568.754634937001	3273.93334960938
569.476998862388	3262.19995117188
570.19927152162	3246.43334960938
570.921452943799	3220.5
571.643543158016	3205.80004882813
572.36554219336	3189
573.087450078895	3182.53344726563
573.809266843695	3177.43334960938
574.530992516797	3149.93334960938
575.252627127239	3160.10009765625
575.974170704067	3158.86669921875
576.695623276275	3151.93334960938
577.416984872882	3146.19995117188
578.138255522875	3160.69995117188
578.859435255253	3149.39990234375
579.580524098969	3158.80004882813
580.301522082995	3158.46655273438
581.022429236289	3152.66674804688
581.743245587771	3165.53344726563
582.463971166388	3163.39990234375
583.184606001047	3161
583.905150120664	3180.46655273438
584.625603554127	3166.36669921875
585.34596633033	3185.30004882813
586.066238478129	3176.10009765625
586.786420026421	3189.93334960938
587.506511004016	3197.80004882813
588.226511439786	3198.06665039063
588.946421362547	3214.96655273438
589.666240801135	3211.2333984375
590.385969784333	3230.63330078125
591.105608340966	3210.10009765625
591.825156499789	3251.2333984375
592.544614289615	3235.36669921875
593.263981739181	3238.33325195313
593.983258877254	3235.39990234375
594.702445732576	3225.96655273438
595.421542333874	3214.2333984375
596.140548709874	3178
596.859464889292	3164.83325195313
597.578290900819	3125.80004882813
598.297026773147	3079.03344726563
599.01567253495	3064.96655273438
599.734228214907	3037.39990234375
600.452693841658	3004.93334960938
601.171069443876	2981.06665039063
601.889355050169	2959.33325195313
602.607550689164	2939.86669921875
603.325656389494	2928.43334960938
604.043672179739	2927.06665039063
604.761598088507	2901.36669921875
605.479434144369	2912.10009765625
606.197180375904	2899.10009765625
606.914836811665	2901.93334960938
607.632403480208	2899
608.349880410053	2886.86669921875
609.067267629757	2881.16674804688
609.784565167799	2878.7333984375
610.50177305272	2888.33325195313
611.218891312991	2889.10009765625
611.935919977112	2888.69995117188
612.652859073553	2891.7666015625
613.369708630773	2894.10009765625
614.086468677222	2909.33325195313
614.803139241348	2891.60009765625
615.519720351572	2926.16674804688
616.236212036331	2933.53344726563
616.952614324014	2941
617.668927243039	2960.43334960938
618.385150821779	2959.19995117188
619.101285088619	2961.93334960938
619.817330071927	2959.03344726563
620.53328580005	2961.93334960938
621.249152301349	2962.2666015625
621.964929604144	2944.39990234375
622.680617736767	2940.5
623.396216727521	2945.93334960938
624.111726604722	2915.93334960938
624.827147396658	2909.63330078125
625.542479131611	2919.5
626.257721837851	2930.96655273438
626.972875543643	2919.2666015625
627.687940277219	2914.53344726563
628.40291606684	2881.2666015625
629.117802940721	2883.56665039063
629.832600927097	2882.83325195313
630.547310054154	2876.86669921875
631.261930350103	2871.13330078125
631.976461843122	2856.60009765625
632.690904561388	2860.43334960938
633.405258533073	2849.13330078125
634.119523786327	2843.53344726563
634.833700349299	2833.69995117188
635.547788250108	2831.69995117188
636.261787516889	2812.53344726563
636.975698177757	2817.36669921875
637.689520260806	2807.93334960938
638.403253794135	2798.80004882813
639.116898805813	2784.39990234375
639.830455323923	2759.13330078125
640.543923376526	2748.96655273438
641.257302991654	2757.10009765625
641.97059419737	2742.2333984375
642.683797021684	2723.69995117188
643.396911492625	2730.33325195313
644.109937638189	2714.7666015625
644.822875486383	2701.06665039063
645.535725065189	2684.06665039063
646.24848640259	2670.53344726563
646.961159526541	2670.36669921875
647.673744465009	2660
648.386241245922	2640.19995117188
649.098649897237	2646
649.810970446856	2634.2666015625
650.523202922707	2631.30004882813
651.235347352688	2627.46655273438
651.947403764692	2627.96655273438
652.6593721866	2642.03344726563
653.37125264629	2618.46655273438
654.083045171609	2604.69995117188
654.79474979043	2614.93334960938
655.506366530575	2622.80004882813
656.217895419889	2608.46655273438
656.929336486172	2626.36669921875
657.640689757255	2613.56665039063
658.351955260922	2613.86669921875
659.063133024971	2612.06665039063
659.774223077175	2607.80004882813
660.485225445308	2614.80004882813
661.196140157123	2612.2333984375
661.906967240365	2611.66674804688
662.617706722782	2626.2666015625
663.328358632091	2611.43334960938
664.038922996016	2628.80004882813
664.749399842249	2646.39990234375
665.459789198507	2623.16674804688
666.170091092458	2624.83325195313
666.880305551784	2619.96655273438
667.590432604155	2626.63330078125
668.300472277216	2627.7666015625
669.01042459862	2639.16674804688
669.720289595993	2628.89990234375
670.430067296964	2629.10009765625
671.139757729146	2624.46655273438
671.849360920142	2640.30004882813
672.558876897549	2627.69995117188
673.268305688942	2630.13330078125
673.977647321902	2622.89990234375
674.686901823982	2622.56665039063
675.396069222745	2620.63330078125
676.105149545725	2623.56665039063
676.81414282046	2610.5
677.523049074465	2619.66674804688
678.231868335251	2612.13330078125
678.940600630328	2613.16674804688
679.649245987172	2606.19995117188
680.35780443329	2588.30004882813
681.066275996125	2597.13330078125
681.77466070315	2595.10009765625
682.482958581809	2597.13330078125
683.191169659556	2589.53344726563
683.899293963803	2590.60009765625
684.60733152198	2586.19995117188
685.315282361489	2593.69995117188
686.023146509742	2595.83325195313
686.730923994122	2599.16674804688
687.438614841998	2574.7666015625
688.146219080748	2605.69995117188
688.853736737737	2611.80004882813
689.561167840308	2603.13330078125
690.268512415792	2600.7666015625
690.975770491533	2627.7333984375
691.682942094835	2617.96655273438
692.390027253004	2606.66674804688
693.097025993363	2618.93334960938
693.803938343168	2619.93334960938
694.510764329722	2617.46655273438
695.217503980276	2624.2666015625
695.9241573221	2642.56665039063
696.63072438243	2641.36669921875
697.337205188513	2623.66674804688
698.043599767579	2637.53344726563
698.749908146834	2633.63330078125
699.456130353494	2635.46655273438
700.162266414748	2631.93334960938
700.868316357798	2621.03344726563
701.574280209806	2622.56665039063
702.280157997948	2621.7666015625
702.985949749382	2612.60009765625
703.691655491252	2617.7333984375
704.397275250694	2604.69995117188
705.102809054837	2597.30004882813
705.808256930795	2607.63330078125
706.513618905686	2591.63330078125
707.218895006592	2593.89990234375
707.924085260618	2581.33325195313
708.629189694824	2586.63330078125
709.334208336292	2597.7333984375
710.039141212057	2586.2333984375
710.743988349195	2578.13330078125
711.448749774726	2589.46655273438
712.153425515681	2585.2666015625
712.858015599075	2604.56665039063
713.562520051922	2610.19995117188
714.266938901217	2605.69995117188
714.971272173936	2607.39990234375
715.675519897077	2602.19995117188
716.379682097595	2617.96655273438
717.083758802453	2605.63330078125
717.787750038595	2620.06665039063
718.491655832963	2620.7666015625
719.195476212478	2626.10009765625
719.899211204065	2617.93334960938
720.602860834625	2628.63330078125
721.306425131073	2624.63330078125
722.009904120281	2628.2333984375
722.713297829139	2636.60009765625
723.416606284497	2630.69995117188
724.119829513234	2636.56665039063
724.822967542194	2646.86669921875
725.526020398215	2644.46655273438
726.228988108123	2649.66674804688
726.931870698739	2660.03344726563
727.63466819687	2666.2666015625
728.337380629327	2667.96655273438
729.040008022882	2668.33325195313
729.742550404337	2683.86669921875
730.445007800446	2676.80004882813
731.147380237972	2684
731.84966774367	2710.83325195313
732.551870344277	2713.46655273438
733.253988066531	2710.03344726563
733.956020937138	2708.33325195313
734.65796898283	2715.7666015625
735.359832230293	2719.39990234375
736.061610706225	2737.30004882813
736.763304437305	2754.69995117188
737.464913450207	2744.36669921875
738.166437771599	2740.19995117188
738.867877428125	2748.60009765625
739.569232446433	2761.36669921875
740.270502853152	2769.36669921875
740.971688674921	2771.10009765625
741.672789938327	2785.39990234375
742.373806669988	2776.39990234375
743.074738896511	2762.10009765625
743.775586644459	2782.5
744.476349940422	2785.10009765625
745.17702881095	2795.33325195313
745.877623282621	2784.7333984375
746.578133381957	2791
747.278559135505	2789.2666015625
747.978900569793	2794.2333984375
748.679157711339	2796.93334960938
749.379330586641	2782
750.0794192222	2779.46655273438
750.779423644508	2753.39990234375
751.479343880037	2761.7666015625
752.179179955261	2761.2333984375
752.878931896634	2757.36669921875
753.578599730608	2751.39990234375
754.278183483618	2728.5
754.977683182097	2718.96655273438
755.677098852465	2731.69995117188
756.376430521131	2723.7333984375
757.07567821449	2708.66674804688
757.774841958949	2699.36669921875
758.473921780873	2694.30004882813
759.172917706636	2682.80004882813
759.871829762612	2683.96655273438
760.570657975148	2665.36669921875
761.269402370572	2665.03344726563
761.96806297524	2631.53344726563
762.66663981546	2640.7666015625
763.365132917561	2634.10009765625
764.063542307824	2616.7333984375
764.761868012567	2624.13330078125
765.460110058069	2625.06665039063
766.158268470599	2622.06665039063
766.856343276424	2614.19995117188
767.55433450181	2618.46655273438
768.252242172994	2625.19995117188
768.950066316215	2633.03344726563
769.64780695771	2648.30004882813
770.345464123687	2642.60009765625
771.043037840361	2658.60009765625
771.740528133929	2648.13330078125
772.437935030586	2664.96655273438
773.1352585565	2663.60009765625
773.832498737855	2671.7333984375
774.529655600803	2677.39990234375
775.226729171507	2670.2666015625
775.923719476093	2680.33325195313
776.62062654071	2673.2333984375
777.317450391468	2671.80004882813
778.014191054486	2641
778.710848555868	2665.53344726563
779.407422921714	2655.7333984375
780.103914178108	2643.80004882813
780.800322351114	2646.46655273438
781.496647466815	2633.2333984375
782.192889551254	2633.7333984375
782.889048630491	2621.30004882813
783.585124730549	2616.39990234375
784.281117877468	2614.7333984375
784.977028097273	2608.16674804688
785.672855415956	2598.30004882813
786.368599859532	2573
787.064261453981	2568.63330078125
787.759840225299	2567.2666015625
788.455336199433	2567.60009765625
789.150749402372	2551.66674804688
789.84607986005	2563.80004882813
790.541327598425	2556.83325195313
791.236492643427	2545.30004882813
791.931575020975	2537.13330078125
792.62657475699	2536.19995117188
793.321491877375	2541.80004882813
794.016326408036	2548.89990234375
794.711078374848	2531.36669921875
795.405747803693	2549.7666015625
796.100334720443	2532.43334960938
796.794839150954	2522.06665039063
797.489261121072	2525.53344726563
798.183600656654	2528
798.877857783511	2535.16674804688
799.57203252748	2532.13330078125
800.266124914366	2539.96655273438
800.960134969973	2545.83325195313
801.654062720095	2529.30004882813
802.347908190512	2532.86669921875
803.041671407007	2540.83325195313
803.735352395342	2551
804.428951181284	2556.7666015625
805.12246779056	2555.33325195313
805.815902248922	2567.30004882813
806.509254582093	2559.19995117188
807.202524815801	2564.39990234375
807.895712975749	2568.80004882813
808.58881908764	2559.53344726563
809.281843177157	2574.36669921875
809.974785270003	2575.66674804688
810.667645391826	2591.56665039063
811.360423568309	2590.5
812.053119825096	2586.2666015625
812.745734187831	2603.16674804688
813.438266682161	2587.83325195313
814.130717333705	2596.2333984375
814.823086168076	2592.7666015625
815.515373210889	2604.06665039063
816.207578487748	2592.36669921875
816.899702024235	2591.10009765625
817.591743845928	2583.89990234375
818.283703978398	2573.63330078125
818.975582447225	2556.69995117188
819.667379277938	2562.43334960938
820.35909449609	2548.66674804688
821.050728127216	2549.06665039063
821.742280196848	2543.33325195313
822.433750730493	2538.36669921875
823.125139753662	2527.03344726563
823.816447291855	2530.39990234375
824.507673370549	2520.03344726563
825.198818015231	2510.60009765625
825.889881251374	2496.63330078125
826.580863104442	2487.80004882813
827.271763599872	2489.93334960938
827.962582763119	2486.16674804688
828.653320619618	2482.43334960938
829.343977194791	2477.80004882813
830.034552514045	2477.39990234375
830.72504660279	2471.33325195313
831.415459486432	2471.30004882813
832.105791190354	2466.2666015625
832.79604173993	2465.80004882813
833.486211160532	2453.96655273438
834.17629947752	2453.56665039063
834.866306716248	2456.43334960938
835.556232902058	2450.83325195313
836.246078060281	2446.63330078125
836.935842216239	2459.83325195313
837.625525395254	2456.39990234375
838.315127622627	2444.56665039063
839.004648923652	2437.43334960938
839.694089323628	2446.39990234375
840.383448847822	2443.33325195313
841.072727521511	2443.10009765625
841.761925369946	2433.16674804688
842.451042418394	2443.5
843.140078692075	2431.69995117188
843.829034216243	2430.56665039063
844.517909016119	2433.56665039063
845.206703116904	2442.36669921875
845.895416543824	2443.7333984375
846.584049322062	2430.33325195313
847.272601476817	2440.03344726563
847.961073033249	2443.66674804688
848.649464016547	2435.83325195313
849.337774451864	2430.80004882813
850.026004364355	2431.80004882813
850.714153779165	2441.10009765625
851.402222721422	2434.66674804688
852.090211216251	2434.46655273438
852.778119288776	2427.96655273438
853.4659469641	2441.30004882813
854.153694267314	2433.2333984375
854.841361223513	2428.03344726563
855.528947857783	2434.39990234375
856.216454195189	2425.89990234375
856.903880260794	2423.46655273438
857.591226079641	2434.30004882813
858.27849167679	2424.93334960938
858.965677077272	2421.7333984375
859.652782306111	2431.86669921875
860.339807388328	2424.30004882813
861.026752348915	2433.7333984375
861.713617212895	2434.19995117188
862.400402005248	2424.93334960938
863.087106750952	2418.46655273438
863.773731474988	2435.7333984375
864.460276202314	2416.43334960938
865.146740957882	2424.80004882813
865.833125766649	2420.7666015625
866.519430653541	2418.2666015625
867.205655643482	2417.63330078125
867.891800761413	2415.63330078125
868.577866032225	2416.80004882813
869.263851480817	2412.2333984375
869.949757132104	2418.56665039063
870.635583010948	2416.39990234375
871.321329142234	2410.93334960938
872.00699555082	2406.69995117188
872.692582261571	2415.46655273438
873.37808929933	2406.39990234375
874.063516688943	2415.5
874.748864455231	2416.83325195313
875.434132623022	2402.7666015625
876.119321217122	2399.66674804688
876.80443026235	2416.86669921875
877.489459783479	2404.86669921875
878.174409805313	2400.30004882813
878.859280352625	2406.36669921875
879.544071450178	2404.19995117188
880.228783122741	2410.69995117188
880.913415395058	2412.16674804688
881.597968291876	2406.53344726563
882.282441837917	2414.36669921875
882.966836057924	2410.33325195313
883.651150976588	2417.86669921875
884.335386618638	2399.7666015625
885.019543008762	2412.06665039063
885.703620171653	2409
886.387618131987	2403.33325195313
887.071536914444	2411.69995117188
887.755376543681	2404.30004882813
888.439137044354	2397.53344726563
889.122818441092	2412.46655273438
889.806420758563	2407.36669921875
890.489944021374	2416.19995117188
891.17338825415	2402.63330078125
891.856753481496	2406.2333984375
892.540039728018	2411.93334960938
893.223247018304	2403.10009765625
893.906375376951	2408.56665039063
894.589424828519	2402.5
895.272395397583	2412.96655273438
895.9552871087	2409.06665039063
896.638099986421	2408.39990234375
897.32083405528	2414.33325195313
898.003489339815	2403.30004882813
898.686065864547	2410.63330078125
899.368563653989	2403.80004882813
900.05098273265	2412.06665039063
900.73332312502	2405.69995117188
901.415584855594	2419.7333984375
902.09776794885	2411.96655273438
902.779872429265	2404.66674804688
903.461898321282	2405.80004882813
904.143845649382	2410.93334960938
904.825714437982	2398.30004882813
905.507504711537	2403.2666015625
906.189216494465	2412.96655273438
906.870849811185	2390.7666015625
907.55240468612	2416
908.23388114366	2399.39990234375
908.915279208196	2400.39990234375
909.596598904118	2404.03344726563
910.277840255801	2416.33325195313
910.959003287608	2406.7333984375
911.640088023892	2407.33325195313
912.32109448903	2402.69995117188
913.002022707327	2401.39990234375
913.682872703143	2394.69995117188
914.363644500786	2393.2333984375
915.044338124572	2405.60009765625
915.724953598816	2411.63330078125
916.405490947812	2400.30004882813
917.08595019585	2413.43334960938
917.766331367211	2409.7666015625
918.446634486172	2413.19995117188
919.126859576979	2403.2333984375
919.807006663897	2413.10009765625
920.487075771186	2407.19995117188
921.167066923067	2420.69995117188
921.846980143778	2415.39990234375
922.526815457533	2419.5
923.206572888542	2423.5
923.886252461025	2417.89990234375
924.565854199158	2422.06665039063
925.245378127137	2427.36669921875
925.924824269132	2430.93334960938
926.604192649339	2421.43334960938
927.28348329188	2444.83325195313
927.962696220933	2437.03344726563
928.641831460637	2438.5
929.320889035124	2440.53344726563
929.999868968515	2454.06665039063
930.678771284941	2466.13330078125
931.357596008509	2475.83325195313
932.036343163312	2486.33325195313
932.715012773449	2505.19995117188
933.393604863005	2506.66674804688
934.072119456057	2516.53344726563
934.750556576661	2540.2666015625
935.428916248893	2541.63330078125
936.107198496784	2551.2666015625
936.785403344392	2563.83325195313
937.463530815739	2586.2333984375
938.141580934859	2595.66674804688
938.819553725761	2611.5
939.497449212455	2634.69995117188
940.175267418943	2650.7333984375
940.853008369217	2657.46655273438
941.530672087252	2688.39990234375
942.208258597034	2695.93334960938
942.88576792251	2718.83325195313
943.563200087657	2717.66674804688
944.240555116409	2711
944.917833032714	2726.19995117188
945.595033860499	2728.39990234375
946.2721576237	2723.86669921875
946.949204346208	2712.63330078125
947.626174051953	2716.80004882813
948.30306676482	2702.7666015625
948.979882508703	2703.7666015625
949.656621307485	2719.69995117188
950.333283185039	2715.33325195313
951.009868165216	2702.06665039063
951.686376271891	2706.03344726563
952.362807528901	2709.2333984375
953.03916196009	2695.56665039063
953.715439589288	2704.7333984375
954.391640440314	2701.2333984375
955.067764536986	2717.93334960938
955.74381190311	2711.43334960938
956.419782562481	2707.7333984375
957.095676538886	2718.10009765625
957.771493856112	2709.7333984375
958.447234537921	2700.93334960938
959.122898608092	2716.30004882813
959.798486090369	2722.66674804688
960.473997008503	2715.43334960938
961.149431386226	2712.89990234375
961.824789247285	2718.36669921875
962.500070615388	2714.7666015625
963.175275514248	2720.43334960938
963.850403967579	2728.60009765625
964.525455999079	2736.43334960938
965.200431632428	2736.60009765625
965.875330891311	2737.66674804688
966.550153799403	2739.03344726563
967.224900380363	2730.16674804688
967.899570657855	2731.89990234375
968.574164655517	2733.80004882813
969.24868239699	2726.56665039063
969.923123905908	2740.80004882813
970.597489205892	2723.80004882813
971.27177832055	2732.7666015625
971.945991273505	2730.83325195313
972.620128088335	2739.2333984375
973.29418878864	2727.53344726563
973.968173398004	2737.80004882813
974.642081939996	2746.16674804688
975.315914438171	2752.86669921875
975.989670916094	2748.63330078125
976.663351397316	2729.19995117188
977.336955905378	2747.03344726563
978.010484463804	2740.06665039063
978.683937096118	2742.2666015625
979.357313825837	2727.43334960938
980.030614676472	2724.80004882813
980.703839671514	2737.83325195313
981.376988834455	2730.66674804688
982.050062188785	2730.7333984375
982.723059757969	2738.19995117188
983.395981565477	2716.5
984.068827634767	2721.43334960938
984.741597989282	2721.66674804688
985.414292652472	2719.06665039063
986.086911647764	2721.06665039063
986.759454998581	2706.06665039063
987.431922728346	2707.10009765625
988.10431486046	2691.16674804688
988.776631418332	2689.16674804688
989.448872425341	2667.2333984375
990.121037904883	2664
990.793127880332	2646.43334960938
991.465142375048	2644.63330078125
992.137081412394	2628.30004882813
992.808945015717	2603.16674804688
993.48073320837	2579.2666015625
994.152446013679	2562.2666015625
994.824083454977	2556
995.495645555577	2551.16674804688
996.167132338785	2540.10009765625
996.838543827912	2531.60009765625
997.509880046252	2524.56665039063
998.181141017087	2516.96655273438
998.852326763699	2508.63330078125
999.523437309342	2508.93334960938
1000.1944726773	2485.66674804688
1000.86543289081	2490.93334960938
1001.53631797312	2490.2333984375
1002.20712794747	2473.19995117188
1002.87786283709	2472.89990234375
1003.5485226652	2462.03344726563
1004.21910745501	2468.7666015625
1004.88961722973	2466.46655273438
1005.56005201255	2455.19995117188
1006.23041182666	2450.96655273438
1006.90069669524	2440
1007.57090664147	2433.33325195313
1008.24104168851	2432.19995117188
1008.9111018595	2434.2333984375
1009.58108717761	2449.66674804688
1010.25099766598	2434.53344726563
1010.92083334773	2429.06665039063
1011.59059424598	2425
1012.26028038385	2414.2333984375
1012.92989178446	2419.5
1013.59942847091	2421.36669921875
1014.26889046627	2407.30004882813
1014.93827779364	2397.53344726563
1015.60759047608	2409.7333984375
1016.27682853668	2403.63330078125
1016.94599199848	2411.19995117188
1017.61508088455	2398.53344726563
1018.28409521791	2398.13330078125
1018.95303502162	2390.19995117188
1019.62190031868	2397.10009765625
1020.29069113213	2388.2333984375
1020.95940748498	2391.03344726563
1021.62804940023	2395.7333984375
1022.29661690087	2379
1022.96511000988	2383.33325195313
1023.63352875027	2379
1024.30187314498	2371.60009765625
1024.97014321699	2372.39990234375
1025.63833898925	2369
1026.3064604847	2373.56665039063
1026.9745077263	2367.63330078125
1027.64248073695	2370.86669921875
1028.3103795396	2370.53344726563
1028.97820415717	2366.46655273438
1029.64595461253	2359.7333984375
1030.31363092861	2356.96655273438
1030.9812331283	2355.13330078125
1031.64876123448	2351.5
1032.31621527001	2348.69995117188
1032.98359525779	2350.86669921875
1033.65090122065	2343.86669921875
1034.31813318144	2353.16674804688
1034.98529116303	2347.33325195313
1035.65237518824	2337.96655273438
1036.3193852799	2353.13330078125
1036.98632146083	2343.43334960938
1037.65318375384	2341.10009765625
1038.31997218173	2341.7666015625
1038.98668676731	2333.7333984375
1039.65332753335	2343.13330078125
1040.31989450265	2336.7333984375
1040.98638769797	2326.19995117188
1041.65280714207	2335.06665039063
1042.31915285773	2333.39990234375
1042.98542486766	2338.86669921875
1043.65162319464	2333.7333984375
1044.31774786138	2341.46655273438
1044.98379889061	2338.2666015625
1045.64977630505	2329.03344726563
1046.3156801274	2339.80004882813
1046.98151038038	2338.10009765625
1047.64726708667	2326.43334960938
1048.31295026895	2340.56665039063
1048.97855994991	2328.13330078125
1049.64409615221	2338.13330078125
1050.30955889852	2326.7333984375
1050.97494821149	2323.86669921875
1051.64026411378	2324.86669921875
1052.30550662801	2333.46655273438
1052.9706757768	2322.63330078125
1053.6357715828	2325.96655273438
1054.30079406862	2335.83325195313
1054.96574325686	2326.86669921875
1055.63061917012	2330.63330078125
1056.29542183099	2320.16674804688
1056.96015126205	2334.2666015625
1057.62480748589	2331.39990234375
1058.28939052507	2333.43334960938
1058.95390040214	2326.93334960938
1059.61833713967	2320.10009765625
1060.28270076019	2330.7333984375
1060.94699128624	2333.66674804688
1061.61120874035	2323.96655273438
1062.27535314506	2332.16674804688
1062.93942452285	2325.7333984375
1063.60342289624	2325
1064.26734828774	2323.10009765625
1064.93120071982	2311.2666015625
1065.59498021498	2327.33325195313
1066.25868679568	2331.5
1066.92232048439	2327.89990234375
1067.58588130357	2326.06665039063
1068.24936927567	2319.69995117188
1068.91278442313	2335.30004882813
1069.5761267684	2326.60009765625
1070.23939633389	2329.19995117188
1070.90259314204	2318.43334960938
1071.56571721524	2333.2333984375
1072.22876857591	2327.19995117188
1072.89174724643	2337.13330078125
1073.55465324921	2327.39990234375
1074.21748660662	2328.19995117188
1074.88024734103	2333.03344726563
1075.54293547481	2329.86669921875
1076.20555103032	2319.93334960938
1076.86809402991	2330.03344726563
1077.53056449592	2332.56665039063
1078.19296245068	2319.43334960938
1078.85528791653	2334.86669921875
1079.51754091578	2329.2333984375
1080.17972147075	2332.93334960938
1080.84182960373	2337.56665039063
1081.50386533702	2337.80004882813
1082.16582869292	2333.63330078125
1082.82771969371	2339.30004882813
1083.48953836164	2332.2333984375
1084.151284719	2341.7666015625
1084.81295878805	2341.43334960938
1085.47456059102	2340.89990234375
1086.13609015016	2339.96655273438
1086.79754748771	2332.69995117188
1087.45893262589	2337.46655273438
1088.12024558693	2345.56665039063
1088.78148639303	2336.83325195313
1089.4426550664	2339.53344726563
1090.10375162923	2333.7333984375
1090.76477610373	2335.33325195313
1091.42572851205	2335.06665039063
1092.08660887639	2346.30004882813
1092.74741721889	2331.19995117188
1093.40815356173	2350.46655273438
1094.06881792706	2335.10009765625
1094.72941033701	2343.03344726563
1095.38993081372	2333.93334960938
1096.05037937931	2329.60009765625
1096.71075605592	2340.2333984375
1097.37106086565	2335.33325195313
1098.03129383061	2342.39990234375
1098.69145497288	2332.96655273438
1099.35154431456	2327.66674804688
1100.01156187774	2346.93334960938
1100.6715076845	2341.80004882813
1101.33138175687	2347.13330078125
