-62.8802654476291	1573.33337402344
-62.0712799426643	1571.90002441406
-61.2624142235228	1572.56665039063
-60.453668249421	1573.23327636719
-59.6450419795873	1572.96667480469
-58.8365353732904	1573
-58.0281483897832	1573.09997558594
-57.2198809883627	1573.5
-56.4117331283222	1572.19995117188
-55.6037047690033	1572.83337402344
-54.7957958697355	1573.09997558594
-53.9880063898805	1572.90002441406
-53.1803362888163	1572.96667480469
-52.3727855259371	1573.5
-51.565354060653	1573.09997558594
-50.7580418523984	1573.43334960938
-49.9508488606157	1572.23327636719
-49.1437750447757	1573.13330078125
-48.336820364353	1572.06665039063
-47.5299847788545	1573.93334960938
-46.723268247799	1573.30004882813
-45.9166707307257	1573.16662597656
-45.1101921871775	1573.40002441406
-44.3038325767297	1571.86669921875
-43.4975918589816	1574.03332519531
-42.6914699935284	1571.80004882813
-41.8854669399975	1573.09997558594
-41.0795826580324	1571.73327636719
-40.2738171072843	1573.13330078125
-39.468170247441	1572.30004882813
-38.6626420381979	1573.59997558594
-37.8572324392625	1573.19995117188
-37.0519414103623	1573.73327636719
-36.2467689112409	1572.59997558594
-35.4417149016698	1573.30004882813
-34.6367793414367	1574.09997558594
-33.8319621903248	1572.23327636719
-33.0272634081699	1574.53332519531
-32.2226829547993	1571.90002441406
-31.4182207900525	1573.80004882813
-30.6138768738127	1573.73327636719
-29.8096511659674	1573.09997558594
-29.0055436264158	1574.86669921875
-28.2015542150811	1574.30004882813
-27.3976828919024	1573
-26.5939296168348	1573.76672363281
-25.7902943498732	1572.53332519531
-24.9867770509643	1573.69995117188
-24.1833776801631	1573.36669921875
-23.3800961974681	1573.56665039063
-22.5769325629299	1572.63330078125
-21.7738867366148	1571.96667480469
-20.9709586785971	1573.69995117188
-20.1681483489668	1572.90002441406
-19.3654557078461	1572.16662597656
-18.5628807153567	1572.86669921875
-17.7604233316523	1573.80004882813
-16.9580835168984	1573.36669921875
-16.1558612312682	1573
-15.353756434975	1573.90002441406
-14.5517690882197	1572.83337402344
-13.749899151243	1573.5
-12.9481465843056	1574.09997558594
-12.1465113476597	1573.30004882813
-11.3449934015975	1572.5
-10.5435927064268	1572.36669921875
-9.74230922245539	1572.33337402344
-8.94114291003872	1573.43334960938
-8.14009372950384	1573.73327636719
-7.33916164124985	1574.90002441406
-6.53834660564732	1573.36669921875
-5.73764858311475	1572.09997558594
-4.93706753405417	1573.59997558594
-4.13660341893157	1573.09997558594
-3.33625619818041	1573.23327636719
-2.53602583228604	1573.30004882813
-1.7359122817535	1574.09997558594
-0.935915507063324	1574.40002441406
-0.136035468755956	1574
0.663727872632601	1578.06665039063
1.4633745565346	1596.36669921875
2.26290462237466	1628.46667480469
3.0623181095658	1620.83337402344
3.86161505750133	1590.26672363281
4.6607955055469	1575.40002441406
5.45985949305655	1573.19995117188
6.25880705936467	1573.63330078125
7.05763824381009	1571.63330078125
7.85635308567993	1573
8.65495162426978	1573.96667480469
9.45343389884758	1573.93334960938
10.2517999486817	1573.96667480469
11.0500498129809	1573.36669921875
11.8481835309944	1573.06665039063
12.6462011419078	1573.16662597656
13.4441026849031	1574.46667480469
14.2418881991669	1572.73327636719
15.039557723842	1573.96667480469
15.8371112980639	1573.09997558594
16.6345489609644	1574.16662597656
17.4318707516237	1573.93334960938
18.2290767091428	1573.36669921875
19.0261668725788	1574.19995117188
19.8231412809895	1574
20.6199999734132	1573.03332519531
21.4167429888605	1573.80004882813
22.2133703663388	1575.09997558594
23.0098821448318	1574.40002441406
23.8062783633078	1573.19995117188
24.6025590607116	1574.80004882813
25.3987242759846	1573.53332519531
26.1947740480326	1573.56665039063
26.9907084157742	1573.46667480469
27.7865274180842	1573.69995117188
28.5822310938222	1570.96667480469
29.3778194818524	1573.76672363281
30.1732926210035	1574.19995117188
30.9686505500847	1573.69995117188
31.7638933079099	1575.19995117188
32.5590209332576	1572.86669921875
33.3540334648948	1572.83337402344
34.1489309415773	1573.5
34.9437134020292	1572.96667480469
35.7383808849756	1574
36.5329334291179	1572.69995117188
37.3273710731384	1573.83337402344
38.1216938556998	1574.06665039063
38.9159018154696	1573.66662597656
39.709994991052	1573.90002441406
40.5039734211038	1573.23327636719
41.2978371441903	1572.43334960938
42.0915861989257	1573.09997558594
42.8852206238609	1574.93334960938
43.6787404575513	1573.73327636719
44.4721457385372	1573.40002441406
45.2654365053394	1572.30004882813
46.0586127964476	1572.36669921875
46.851674650356	1573.90002441406
47.6446221055438	1573.26672363281
48.4374552004507	1572.5
49.2301739735132	1572.83337402344
50.0227784631605	1573.59997558594
50.8152687077948	1572.86669921875
51.6076447457987	1573.36669921875
52.3999066155438	1572.40002441406
53.1920543553943	1573.93334960938
53.9840880036714	1573.69995117188
54.7760075987088	1572.40002441406
55.5678131788212	1573.40002441406
56.3595047822761	1574.33337402344
57.1510824473577	1573.76672363281
57.942546212331	1575.83337402344
58.7338961154258	1577.36669921875
59.525132194861	1579.06665039063
60.3162544888519	1579.5
61.1072630355949	1583.90002441406
61.8981578732591	1583.96667480469
62.6889390400027	1593.33337402344
63.4796065739646	1599
64.2701605132803	1602.96667480469
65.0606008960507	1616
65.850927760381	1627.96667480469
66.6411411443418	1641.33337402344
67.4312410859883	1659.53332519531
68.2212276233846	1678.96667480469
69.0111007945477	1700.46667480469
69.8008606374757	1730.06665039063
70.5905071901953	1757.23327636719
71.3800404906624	1789.66662597656
72.1694605768577	1823.09997558594
72.9587674867149	1871.43334960938
73.7479612581764	1914.66662597656
74.5370419291618	1967.69995117188
75.3260095375637	2033.96667480469
76.1148641212555	2098.2333984375
76.9036057181274	2155.86669921875
77.692234366023	2214.63330078125
78.4807501027626	2268
79.2691529661875	2323.93334960938
80.057442994084	2366.43334960938
80.8456202242555	2406.69995117188
81.6336846944583	2425.13330078125
82.4216364424577	2471.2333984375
83.209475505984	2507
83.9972019227687	2521.36669921875
84.7848157305122	2542.13330078125
85.5723169669118	2563
86.35970566965	2569.7333984375
87.1469818763625	2569.66674804688
87.9341456247138	2582
88.7211969523174	2586.63330078125
89.5081358967922	2577.60009765625
90.2949624957419	2604.16674804688
91.0816767867314	2595.63330078125
91.8682788073265	2606.66674804688
92.6547685950865	2631.33325195313
93.4411461875273	2620.60009765625
94.2274116221783	2621.16674804688
95.0135649365377	2641.13330078125
95.7996061680733	2653.10009765625
96.5855353542694	2659.5
97.3713525325837	2680.53344726563
98.1570577404393	2675.83325195313
98.9426510152601	2680.36669921875
99.7281323944553	2684.06665039063
100.513501915411	2706.2666015625
101.298759615503	2719.66674804688
102.083905532084	2732.2333984375
102.868939702507	2736.2333984375
103.653862164088	2732.30004882813
104.438672954135	2724.13330078125
105.223372109953	2747.53344726563
106.007959668809	2734.36669921875
106.792435667971	2741.03344726563
107.576800144691	2730.03344726563
108.361053136196	2737.13330078125
109.145194679705	2734.89990234375
109.929224812423	2745.56665039063
110.713143571512	2744.53344726563
111.496950994167	2744.53344726563
112.280647117525	2752.36669921875
113.064231978738	2754.86669921875
113.847705614907	2768.33325195313
114.631068063155	2767.36669921875
115.414319360579	2776.83325195313
116.197459544232	2771.7333984375
116.980488651183	2786.60009765625
117.76340671848	2789.86669921875
118.546213783147	2798.06665039063
119.328909882199	2805.66674804688
120.111495052631	2834.10009765625
120.893969331422	2837.13330078125
121.676332755544	2867.19995117188
122.458585361951	2880.39990234375
123.240727187553	2911.53344726563
124.022758269305	2905.43334960938
124.80467864409	2913
125.586488348789	2923.16674804688
126.368187420295	2921.33325195313
127.149775895457	2935.86669921875
127.931253811101	2934.53344726563
128.712621204077	2929.7666015625
129.493878111185	2930.19995117188
130.275024569216	2954.33325195313
131.056060614958	2969.96655273438
131.83698628517	2979.7666015625
132.617801616613	2977.7333984375
133.398506646002	2993.13330078125
134.179101410061	3018.46655273438
134.959585945506	3020.46655273438
135.739960289009	3028.66674804688
136.520224477246	3040.19995117188
137.300378546871	3049.16674804688
138.080422534531	3053.06665039063
138.860356476858	3044.60009765625
139.640180410446	3057.86669921875
140.419894371904	3044.63330078125
141.199498397803	3081.36669921875
141.978992524711	3082.86669921875
142.758376789171	3098.63330078125
143.537651227737	3102.36669921875
144.316815876908	3100.03344726563
145.095870773189	3131.19995117188
145.87481595308	3143.30004882813
146.653651453034	3148.7666015625
147.432377309528	3176
148.210993559001	3191.60009765625
148.989500237868	3200.06665039063
149.767897382556	3214.89990234375
150.54618502945	3213.66674804688
151.32436321493	3225.5
152.102431975379	3230.13330078125
152.880391347127	3207.96655273438
153.658241366526	3214.86669921875
154.435982069885	3211.19995117188
155.213613493518	3191.56665039063
155.991135673722	3196.83325195313
156.768548646755	3178.80004882813
157.545852448879	3169.36669921875
158.323047116349	3148.7333984375
159.100132685386	3163.60009765625
159.87710919221	3149.43334960938
160.653976673029	3130.39990234375
161.430735164005	3123.7666015625
162.207384701331	3116.03344726563
162.983925321134	3113.36669921875
163.760357059579	3099.96655273438
164.53667995278	3107.96655273438
165.312894036849	3079.43334960938
166.088999347874	3078
166.864995921944	3098.2333984375
167.640883795114	3084.16674804688
168.416663003433	3061.66674804688
169.192333582946	3084.96655273438
169.967895569649	3068.93334960938
170.743348999574	3082.33325195313
171.518693908696	3054.19995117188
172.293930332984	3096.03344726563
173.069058308402	3094.2666015625
173.844077870897	3089.66674804688
174.618989056393	3126.63330078125
175.393791900815	3122
176.168486440051	3135.63330078125
176.943072709988	3155.19995117188
177.717550746499	3146.56665039063
178.491920585434	3164.66674804688
179.266182262636	3170.06665039063
180.040335813929	3179.2333984375
180.814381275124	3176.83325195313
181.588318682016	3183.5
182.362148070379	3177.69995117188
183.135869475982	3150.53344726563
183.909482934581	3169.30004882813
184.682988481907	3168.89990234375
185.456386153678	3167
186.229675985605	3172.43334960938
187.002858013381	3184.2333984375
187.775932272675	3188.33325195313
188.548898799156	3218.66674804688
189.321757628464	3215.5
190.094508796233	3237.30004882813
190.867152338093	3241.43334960938
191.639688289621	3243.66674804688
192.412116686426	3243.10009765625
193.184437564075	3210.83325195313
193.956650958131	3189.66674804688
194.728756904128	3186.63330078125
195.5007554376	3151.03344726563
196.272646594053	3152.7666015625
197.044430409009	3135.7666015625
197.816106917926	3119.93334960938
198.587676156286	3123.60009765625
199.359138159551	3104.89990234375
200.130492963154	3118.56665039063
200.901740602533	3101.7333984375
201.672881113069	3110.36669921875
202.443914530197	3095.60009765625
203.21484088928	3095.93334960938
203.985660225681	3097.96655273438
204.756372574761	3112.7666015625
205.526977971861	3098.86669921875
206.297476452295	3092.93334960938
207.067868051388	3104.06665039063
207.838152804412	3128.19995117188
208.608330746674	3108
209.378401913422	3091.43334960938
210.148366339906	3102.60009765625
210.918224061374	3091.66674804688
211.687975113045	3087.60009765625
212.457619530114	3093.2666015625
213.227157347785	3102.83325195313
213.99658860124	3101.06665039063
214.765913325632	3092.96655273438
215.535131556123	3087.86669921875
216.304243327836	3078.93334960938
217.0732486759	3073.10009765625
217.842147635418	3059
218.610940241485	3080.66674804688
219.379626529164	3081.89990234375
220.148206533545	3072.86669921875
220.916680289649	3065.86669921875
221.685047832518	3095.86669921875
222.453309197187	3074.06665039063
223.22146441864	3072.7666015625
223.989513531873	3075.53344726563
224.757456571871	3071.66674804688
225.525293573586	3068.7333984375
226.293024571978	3073.03344726563
227.060649601968	3076.16674804688
227.828168698485	3099.10009765625
228.595581896417	3075.69995117188
229.36288923067	3077.69995117188
230.13009073612	3075.7333984375
230.897186447618	3071.7666015625
231.664176400015	3071.5
232.431060628155	3069.36669921875
233.197839166838	3048.96655273438
233.964512050879	3042.2333984375
234.731079315067	3032.2333984375
235.497540994182	3020.96655273438
236.263897122969	3015.69995117188
237.030147736203	3020.53344726563
237.796292868591	3007.89990234375
238.562332554869	2988.89990234375
239.328266829726	3006.69995117188
240.094095727868	2979.10009765625
240.859819283965	2972.89990234375
241.625437532675	2970.39990234375
242.390950508647	2968.89990234375
243.156358246524	2958.96655273438
243.92166078091	2943.46655273438
244.686858146422	2953.63330078125
245.451950377653	2966.43334960938
246.21693750916	2953.2333984375
246.981819575529	2955.96655273438
247.746596611295	2953.43334960938
248.511268650998	2972.2333984375
249.275835729171	2953.89990234375
250.040297880287	2957.33325195313
250.804655138874	2952.7333984375
251.568907539387	2958.10009765625
252.33305511629	2944.19995117188
253.097097904051	2939.10009765625
253.861035937094	2931.30004882813
254.624869249832	2937.16674804688
255.388597876694	2932.33325195313
256.152221852056	2921.43334960938
256.91574121031	2906.60009765625
257.679155985804	2922.53344726563
258.44246621291	2910.7333984375
259.205671925953	2907.69995117188
259.968773159265	2909.30004882813
260.731769947137	2911.53344726563
261.494662323889	2906.16674804688
262.257450323789	2911.2333984375
263.020133981114	2914.39990234375
263.782713330096	2903.2333984375
264.545188405006	2895.13330078125
265.307559240043	2891.33325195313
266.069825869431	2905.63330078125
266.831988327372	2884.86669921875
267.594046648038	2878.80004882813
268.356000865614	2877.83325195313
269.117851014242	2878.83325195313
269.879597128072	2882.53344726563
270.641239241227	2882.13330078125
271.402777387822	2878.93334960938
272.164211601968	2889.7666015625
272.925541917734	2887.86669921875
273.686768369218	2896.93334960938
274.447890990452	2896.5
275.208909815491	2902.2666015625
275.969824878374	2906.7666015625
276.730636213111	2914.10009765625
277.491343853704	2891.66674804688
278.251947834161	2889.5
279.012448188426	2902.66674804688
279.77284495049	2902.69995117188
280.53313815429	2932.83325195313
281.293327833748	2906.96655273438
282.053414022814	2901.2666015625
282.813396755376	2920.63330078125
283.573276065324	2943.86669921875
284.33305198655	2928.39990234375
285.092724552909	2957.39990234375
285.852293798263	2958.5
286.611759756441	2961.60009765625
287.371122461278	2950.80004882813
288.130381946579	2940.53344726563
288.889538246139	2925.7666015625
289.648591393744	2930.13330078125
290.407541423175	2943.03344726563
291.166388368168	2932.7666015625
291.925132262479	2930.5
292.683773139831	2936.63330078125
293.442311033949	2940.53344726563
294.20074597852	2952.66674804688
294.959078007246	2955.66674804688
295.717307153788	2962.16674804688
296.475433451819	2959.06665039063
297.233456934983	2973.2666015625
297.991377636909	2980.16674804688
298.749195591222	2976.7333984375
299.506910831518	2982.83325195313
300.264523391407	2987.89990234375
301.022033304463	3003.03344726563
301.779440604232	3001.2666015625
302.536745324296	3021.33325195313
303.29394749818	3040.93334960938
304.051047159396	3053.66674804688
304.808044341482	3058.06665039063
305.564939077912	3053.63330078125
306.321731402186	3050.16674804688
307.078421347769	3047.5
307.835008948125	3047.06665039063
308.591494236682	3042.30004882813
309.347877246887	3032.69995117188
310.104158012137	3031.89990234375
310.860336565864	3041.53344726563
311.61641294144	3027
312.372387172236	3025
313.128259291635	3035.80004882813
313.884029332973	3051.13330078125
314.639697329583	3047
315.395263314798	3055
316.150727321916	3032.33325195313
316.906089384244	3044.80004882813
317.661349535058	3036.46655273438
318.416507807635	3031
319.171564235222	3037.2666015625
319.926518851071	3047.63330078125
320.681371688396	3043.80004882813
321.436122780421	3033.06665039063
322.190772160357	3025.43334960938
322.945319861375	3025.2666015625
323.699765916671	3015.60009765625
324.454110359381	3015.36669921875
325.208353222683	3016.16674804688
325.962494539703	3030.2666015625
326.716534343549	3020.2333984375
327.470472667348	3021.19995117188
328.224309544186	3013.56665039063
328.978045007146	3010.7333984375
329.731679089301	3020.10009765625
330.485211823709	3017.39990234375
331.238643243403	3025.30004882813
331.991973381419	3021.33325195313
332.745202270779	3033.13330078125
333.498329944478	3025.2333984375
334.2513564355	3029.06665039063
335.004281776836	3052.86669921875
335.757106001433	3039.46655273438
336.509829142263	3043.80004882813
337.262451232236	3060.39990234375
338.014972304297	3059.06665039063
338.767392391353	3072.03344726563
339.519711526284	3052.06665039063
340.271929741995	3063.80004882813
341.024047071347	3074.93334960938
341.776063547202	3061.33325195313
342.527979202404	3079.10009765625
343.279794069774	3090
344.031508182148	3086.2666015625
344.783121572317	3080.19995117188
345.534634273077	3093.96655273438
346.286046317214	3081.2333984375
347.037357737486	3091.53344726563
347.788568566647	3093
348.53967883744	3106.63330078125
349.290688582585	3101.13330078125
350.041597834807	3110
350.792406626787	3111.63330078125
351.543114991233	3111.33325195313
352.293722960812	3132.46655273438
353.044230568177	3118.16674804688
353.794637845986	3138.06665039063
354.544944826878	3148.16674804688
355.295151543456	3139.2333984375
356.04525802835	3155.06665039063
356.795264314149	3149.7666015625
357.545170433436	3146.63330078125
358.294976418782	3168.7666015625
359.044682302738	3165.13330078125
359.794288117852	3202.43334960938
360.543793896656	3218.2666015625
361.29319967167	3205.83325195313
362.042505475391	3229.10009765625
362.791711340325	3249.46655273438
363.540817298935	3263.39990234375
364.289823383709	3276.7666015625
365.038729627086	3297.5
365.787536061506	3316.13330078125
366.536242719398	3340.06665039063
367.284849633182	3380.43334960938
368.033356835252	3421.60009765625
368.781764358002	3452.16674804688
369.53007223381	3475.86669921875
370.278280495037	3537.86669921875
371.026389174033	3602.69995117188
371.774398303131	3686.83325195313
372.522307914668	3784.39990234375
373.27011804094	3879.7666015625
374.017828714256	3972.10009765625
374.765439966906	4151.2001953125
375.512951831155	4350.7998046875
376.260364339265	4557.10009765625
377.007677523483	4827.83349609375
377.754891416045	5188.7998046875
378.502006049178	5633.93310546875
379.24902145509	6300.466796875
379.995937665966	7256.63330078125
380.742754714007	8539.6337890625
381.489472631371	9904.93359375
382.23609145022	10946.56640625
382.982611202705	11240.93359375
383.729031920945	10649.900390625
384.475353637076	9388.3330078125
385.221576383194	7919
385.967700191404	6558.2001953125
386.713725093772	5476.2666015625
387.459651122386	4722.13330078125
388.205478309287	4288.966796875
388.951206686529	4004.86669921875
389.696836286131	3897.06665039063
390.442367140129	3800.06665039063
391.187799280514	3775.80004882813
391.933132739288	3772.89990234375
392.678367548424	3816.06665039063
393.423503739891	3841.46655273438
394.168541345647	3928.06665039063
394.913480397638	4020.80004882813
395.658320927787	4197.66650390625
396.403062968017	4386.36669921875
397.147706550217	4643.033203125
397.892251706308	5022.56689453125
398.636698468135	5540.5
399.381046867591	6274.10009765625
400.125296936527	7289.93310546875
400.869448706771	8669.2998046875
401.613502210162	10443
402.357457478514	12378.8662109375
403.101314543631	14357.2998046875
403.845073437302	15887.7001953125
404.588734191315	16778.267578125
405.332296837421	16689.30078125
406.075761407394	15599.06640625
406.819127932949	13816.7998046875
407.562396445845	11712.3662109375
408.305566977772	9678.6337890625
409.04863956045	8139.60009765625
409.791614225562	6899.93310546875
410.534491004789	6047.7998046875
411.277269929795	5478.2998046875
412.01995103224	5030.86669921875
412.762534343757	4744.5
413.505019895978	4513.7333984375
414.24740772053	4326.5
414.989697849001	4159.86669921875
415.731890312987	4046.86669921875
416.473985144072	3943.60009765625
417.215982373819	3864.2333984375
417.957882033789	3798.43334960938
418.699684155502	3731.66674804688
419.441388770524	3706.46655273438
420.182995910336	3656.10009765625
420.924505606466	3628.86669921875
421.665917890392	3606.53344726563
422.407232793599	3593.10009765625
423.148450347555	3552.2333984375
423.889570583717	3507.7666015625
424.63059353353	3506.03344726563
425.371519228422	3496.7333984375
426.112347699803	3480.10009765625
426.853078979086	3470.03344726563
427.593713097665	3428.39990234375
428.33425008692	3434.60009765625
429.074689978222	3419.39990234375
429.815032802924	3412.83325195313
430.555278592372	3409.10009765625
431.295427377897	3421.83325195313
432.035479190816	3435.63330078125
432.775434062439	3415.96655273438
433.515292024063	3437.56665039063
434.255053106972	3460
434.994717342431	3456.03344726563
435.734284761697	3500.10009765625
436.473755396031	3497.2333984375
437.213129276644	3498.53344726563
437.952406434772	3526.13330078125
438.691586901617	3534.2333984375
439.430670708389	3536.7333984375
440.169657886272	3558.03344726563
440.908548466418	3588.03344726563
441.647342480007	3614.46655273438
442.386039958177	3646.5
443.124640932069	3659.36669921875
443.863145432812	3707.10009765625
444.601553491512	3732.16674804688
445.33986513926	3753.96655273438
446.078080407158	3785.13330078125
446.816199326269	3812.30004882813
447.554221927677	3876.10009765625
448.292148242409	3887.10009765625
449.029978301517	3951.06665039063
449.767712136028	3965.43334960938
450.505349776945	3979.96655273438
451.242891255285	3999.16674804688
451.980336602031	3979.86669921875
452.71768584816	3955.63330078125
453.454939024642	3949.03344726563
454.192096162432	3936.89990234375
454.929157292471	3901
455.666122445688	3882.43334960938
456.402991653005	3846.19995117188
457.139764945315	3836.03344726563
457.876442353532	3791.83325195313
458.613023908526	3762.66674804688
459.349509641164	3736.06665039063
460.085899582312	3719.86669921875
460.822193762814	3721.39990234375
461.558392213494	3669.2333984375
462.294494965194	3650.39990234375
463.030502048697	3630.96655273438
463.766413494825	3612.36669921875
464.502229334351	3572.60009765625
465.237949598048	3538.46655273438
465.973574316689	3483.19995117188
466.709103521014	3430.10009765625
467.444537241762	3360
468.179875509659	3308.36669921875
468.915118355427	3233.13330078125
469.650265809753	3150.7333984375
470.385317903349	3104.5
471.120274666865	3026.83325195313
471.855136130995	2985.86669921875
472.58990232637	2921.2666015625
473.324573283648	2880.80004882813
474.059149033461	2845.39990234375
474.79362960642	2810.53344726563
475.528015033126	2793.93334960938
476.262305344182	2772.2333984375
476.996500570171	2750.89990234375
477.730600741669	2718.46655273438
478.464605889225	2725.56665039063
479.198516043396	2715.43334960938
479.932331234711	2717.43334960938
480.666051493696	2699.16674804688
481.399676850862	2708.19995117188
482.133207336713	2707.69995117188
482.866642981732	2698.63330078125
483.599983816392	2686.69995117188
484.333229871174	2697.93334960938
485.066381176515	2703
485.799437762864	2694.69995117188
486.532399660646	2699.16674804688
487.26526690028	2698.96655273438
487.998039512179	2711
488.730717526715	2698
489.463300974296	2702.43334960938
490.195789885282	2706.06665039063
490.928184290029	2715.5
491.660484218891	2728.13330078125
492.392689702196	2718.36669921875
493.124800770267	2735.60009765625
493.856817453423	2727.83325195313
494.58873978196	2743.96655273438
495.320567786163	2750.89990234375
496.052301496312	2734.7333984375
496.78394094268	2758.10009765625
497.515486155507	2760.13330078125
498.246937165038	2773.03344726563
498.978294001508	2780.16674804688
499.709556695134	2793.16674804688
500.440725276116	2800.03344726563
501.171799774654	2798.2666015625
501.902780220937	2833.33325195313
502.633666645125	2855.03344726563
503.364459077379	2846.63330078125
504.095157547859	2875.86669921875
504.825762086703	2899.53344726563
505.556272724014	2942.66674804688
506.28668948992	2975.33325195313
507.017012414525	3013.36669921875
507.747241527917	3045.63330078125
508.477376860178	3105.53344726563
509.207418441364	3177.33325195313
509.937366301541	3228.56665039063
510.667220470757	3338.19995117188
511.396980979027	3428.63330078125
512.126647856384	3554.66674804688
512.856221132834	3697.83325195313
513.585700838377	3865.86669921875
514.315087003002	4091.03344726563
515.044379656677	4352.36669921875
515.773578829365	4682.33349609375
516.502684551024	5063.66650390625
517.231696851581	5487.60009765625
517.960615760992	6056.7666015625
518.689441309145	6597.66650390625
519.418173525954	7236.7001953125
520.14681244132	7826.43310546875
520.875358085115	8251.93359375
521.603810487223	8566.06640625
522.332169677498	8653.3330078125
523.060435685782	8477.6669921875
523.788608541918	8188.5
524.516688275735	7803.33349609375
525.244674917032	7339.63330078125
525.972568495632	6919.86669921875
526.700369041313	6511
527.428076583853	6169.33349609375
528.155691153016	5798.2998046875
528.883212778579	5518.13330078125
529.610641490272	5292.33349609375
530.337977317825	5045.466796875
531.065220290966	4836.533203125
531.792370439414	4681.56689453125
532.519427792862	4506.466796875
533.246392380984	4380.7666015625
533.973264233486	4271.2998046875
534.700043380017	4179.2998046875
535.426729850224	4085.30004882813
536.153323673761	4039.5
536.879824880257	3924.5
537.606233499329	3882.53344726563
538.3325495606	3836.7333984375
539.058773093641	3758.56665039063
539.784904128058	3693.10009765625
540.510942693433	3685.2333984375
541.2368888193	3643.36669921875
541.962742535234	3594.5
542.688503870775	3569.93334960938
543.414172855445	3524.43334960938
544.139749518768	3507.69995117188
544.865233890241	3484.7666015625
545.590625999378	3477.46655273438
546.315925875649	3464.2333984375
547.041133548521	3433.13330078125
547.766249047478	3419.89990234375
548.491272401953	3404
549.216203641395	3372.30004882813
549.941042795224	3381.60009765625
550.665789892862	3360.66674804688
551.390444963722	3368.80004882813
552.115008037185	3356.2666015625
552.839479142637	3357.13330078125
553.563858309456	3363.06665039063
554.288145567008	3345.16674804688
555.012340944627	3333.69995117188
555.736444471663	3322.16674804688
556.460456177436	3337.80004882813
557.184376091269	3338.86669921875
557.908204242471	3331.53344726563
558.631940660319	3327.66674804688
559.355585374112	3342.69995117188
560.079138413115	3348.46655273438
560.802599806587	3353.83325195313
561.525969583781	3354.30004882813
562.249247773936	3367.10009765625
562.972434406278	3383.03344726563
563.695529510013	3393
564.418533114361	3398.19995117188
565.141445248508	3385.13330078125
565.86426594164	3424.10009765625
566.586995222919	3415.5
567.30963312152	3414.30004882813
568.032179666588	3412.7333984375
568.754634887244	3413.7333984375
569.476998812642	3389.13330078125
570.199271471882	3380.66674804688
570.921452894069	3365.66674804688
571.643543108309	3335.46655273438
572.365542143668	3310.16674804688
573.087450029226	3305.36669921875
573.809266794052	3279.30004882813
574.530992467177	3277.60009765625
575.252627077661	3261.39990234375
575.974170654523	3237.80004882813
576.695623226769	3245.80004882813
577.416984823414	3240.86669921875
578.138255473464	3230.7333984375
578.859435205884	3221.5
579.580524049653	3235.7333984375
580.301522033735	3236.69995117188
581.022429187082	3231.43334960938
581.743245538632	3228.69995117188
582.463971117309	3241.43334960938
583.184605952044	3234.66674804688
583.905150071733	3235.16674804688
584.625603505272	3233.36669921875
585.34596628155	3243.36669921875
586.066238429439	3253.89990234375
586.786419977803	3275.2333984375
587.506510955493	3286.16674804688
588.226511391349	3275.39990234375
588.946421314208	3280.89990234375
589.66624075289	3295.06665039063
590.385969736194	3290.10009765625
591.105608292929	3317.56665039063
591.825156451865	3304.66674804688
592.544614241793	3319.63330078125
593.26398169148	3331.36669921875
593.983258829669	3342.36669921875
594.702445685105	3345.66674804688
595.421542286534	3337.69995117188
596.140548662655	3356.93334960938
596.859464842204	3331.43334960938
597.57829085386	3305.63330078125
598.297026726324	3273.80004882813
599.015672488274	3252.63330078125
599.734228168373	3218.66674804688
600.452693795271	3205.69995117188
601.171069397632	3169.7666015625
601.889355004075	3119.2333984375
602.607550643225	3080.2333984375
603.325656343709	3074.33325195313
604.043672134119	3044.89990234375
604.761598043052	3029
605.47943409908	3028.53344726563
606.197180330781	3000.86669921875
606.914836766719	2987.2666015625
607.63240343543	2992.83325195313
608.349880365456	2981.36669921875
609.067267585332	2964.30004882813
609.784565123566	2976.96655273438
610.501773008671	2957.06665039063
611.218891269138	2970.96655273438
611.93591993345	2964.43334960938
612.652859030087	2981.2333984375
613.369708587505	2972.30004882813
614.08646863415	2987.10009765625
614.803139198486	2981.03344726563
615.519720308919	2981.33325195313
616.236211993877	3002.13330078125
616.952614281785	3017.80004882813
617.668927201021	3023.2333984375
618.385150779978	3012.5
619.101285047039	3039.06665039063
619.817330030569	3032.93334960938
620.53328575892	3023.16674804688
621.249152260448	3028.56665039063
621.964929563472	3010.86669921875
622.680617696327	3018.80004882813
623.396216687332	3013.43334960938
624.11172656477	2995.19995117188
624.827147356948	2986.19995117188
625.542479092146	3003.2333984375
626.257721798632	2971.56665039063
626.972875504675	2979.36669921875
627.687940238502	2983.2333984375
628.402916028385	2974.2333984375
629.117802902525	2957.96655273438
629.832600889155	2955.19995117188
630.547310016475	2938.2666015625
631.261930312689	2943.56665039063
631.976461805977	2936.30004882813
632.690904524516	2919.5
633.405258496471	2913.33325195313
634.119523750001	2921.53344726563
634.833700313246	2908.36669921875
635.547788214339	2893.66674804688
636.261787481404	2903.53344726563
636.975698142553	2895.46655273438
637.68952022589	2898.16674804688
638.403253759507	2884.60009765625
639.116898771487	2865.96655273438
639.830455289893	2840.96655273438
640.543923342783	2851.19995117188
641.257302958217	2838.89990234375
641.970594164232	2816.7333984375
642.683796988848	2804.30004882813
643.396911460096	2794.56665039063
644.109937605966	2765.69995117188
644.822875454473	2755.66674804688
645.53572503359	2740.06665039063
646.248486371303	2736.46655273438
646.961159495572	2701.46655273438
647.67374443435	2702.69995117188
648.386241215595	2689.69995117188
649.098649867223	2667.7666015625
649.810970417174	2684.96655273438
650.523202893353	2666.53344726563
651.235347323658	2666.63330078125
651.947403735994	2677.16674804688
652.659372158234	2653.93334960938
653.371252618256	2649.33325195313
654.083045143913	2666.69995117188
654.794749763067	2645.96655273438
655.506366503554	2654.63330078125
656.217895393203	2637.06665039063
656.929336459833	2649.93334960938
657.640689731259	2643.30004882813
658.351955235278	2650.93334960938
659.063132999674	2629.96655273438
659.774223052232	2647.7333984375
660.485225420715	2636.2333984375
661.196140132879	2644.53344726563
661.906967216486	2636.10009765625
662.617706699253	2650.86669921875
663.328358608922	2634.5
664.038922973205	2645.33325195313
664.749399819802	2649.46655273438
665.459789176421	2648.96655273438
666.17009107074	2654.46655273438
666.880305530427	2667.16674804688
667.590432583166	2660.30004882813
668.300472256591	2647.36669921875
669.010424578367	2681.93334960938
669.720289576111	2667.80004882813
670.430067277454	2668.83325195313
671.139757710011	2658.2333984375
671.84936090139	2662.2666015625
672.558876879165	2665.39990234375
673.26830567094	2671.69995117188
673.977647304279	2653.93334960938
674.686901806745	2659.7333984375
675.396069205886	2650.2666015625
676.105149529249	2654.5
676.814142804362	2663.46655273438
677.52304905876	2641.7666015625
678.231868319932	2630.10009765625
678.940600615394	2637.89990234375
679.649245972639	2625.60009765625
680.357804419135	2628
681.06627598236	2633.2666015625
681.774660689777	2630.06665039063
682.48295856883	2635.10009765625
683.191169646962	2612.80004882813
683.899293951605	2614.53344726563
684.607331510171	2633.93334960938
685.315282350084	2627.2333984375
686.02314649873	2612.89990234375
686.730923983499	2625.43334960938
687.438614831781	2626.2666015625
688.146219070931	2615.7666015625
688.85373672832	2623.19995117188
689.561167831284	2639.69995117188
690.268512407171	2624.36669921875
690.975770483311	2636.30004882813
691.682942087017	2636.33325195313
692.390027245597	2645.63330078125
693.097025986355	2642.10009765625
693.803938336563	2649.89990234375
694.510764323517	2645.56665039063
695.217503974478	2651.60009765625
695.924157316704	2661.5
696.630724377444	2665.7333984375
697.33720518393	2660.7333984375
698.043599763395	2654.30004882813
698.749908143061	2674.69995117188
699.456130350123	2658.39990234375
700.16226641179	2664.96655273438
700.868316355247	2671.13330078125
701.574280207661	2668.13330078125
702.280157996213	2671.5
702.985949748049	2661.16674804688
703.691655490325	2655.19995117188
704.397275250176	2655.10009765625
705.102809054725	2654.30004882813
705.808256931096	2654.7333984375
706.513618906394	2660.66674804688
707.218895007709	2639.93334960938
707.924085262133	2636.63330078125
708.629189696756	2625.2666015625
709.334208338621	2633.86669921875
710.039141214803	2619.56665039063
710.74398835235	2616.60009765625
711.448749778282	2626.96655273438
712.153425519642	2612.66674804688
712.858015603445	2613.7666015625
713.562520056698	2621.13330078125
714.266938906393	2616.80004882813
714.971272179525	2638.33325195313
715.675519903074	2623.56665039063
716.37968210399	2642.66674804688
717.083758809252	2638.43334960938
717.787750045799	2635.06665039063
718.491655840564	2646.39990234375
719.195476220488	2659.39990234375
719.899211212479	2646.60009765625
720.602860843444	2653.19995117188
721.306425140292	2666.13330078125
722.009904129901	2657.7666015625
722.713297839148	2662.2333984375
723.416606294918	2664.80004882813
724.119829524055	2660.96655273438
724.822967553408	2656.36669921875
725.526020409825	2666.80004882813
726.228988120126	2676.06665039063
726.931870711138	2695.53344726563
727.634668209667	2685.56665039063
728.337380642509	2692.36669921875
729.040008036467	2691.39990234375
729.742550418314	2708.7666015625
730.445007814809	2708.86669921875
731.147380252727	2696.66674804688
731.849667758814	2716.63330078125
732.551870359809	2726.33325195313
733.253988082447	2738.63330078125
733.956020953443	2736.56665039063
734.65796899952	2741.2333984375
735.35983224736	2753.5
736.06161072368	2763.63330078125
736.763304455137	2768.89990234375
737.46491346842	2770.2666015625
738.166437790192	2780.2333984375
738.867877447092	2790.33325195313
739.56923246578	2791.36669921875
740.270502872869	2810.2333984375
740.97168869501	2811.63330078125
741.672789958786	2821
742.373806690826	2835
743.074738917708	2832.19995117188
743.775586666025	2836.2666015625
744.476349962353	2849.83325195313
745.17702883325	2843.53344726563
745.877623305271	2860.63330078125
746.578133404972	2855.13330078125
747.278559158878	2869.69995117188
747.978900593523	2873.30004882813
748.679157735427	2853.30004882813
749.379330611075	2856.69995117188
750.079419246988	2865.10009765625
750.77942366965	2858.83325195313
751.479343905525	2868.16674804688
752.179179981098	2864.39990234375
752.878931922821	2853.7666015625
753.578599757127	2848.83325195313
754.278183510479	2849.33325195313
754.977683209296	2834.63330078125
755.677098880003	2822.16674804688
756.376430549004	2820.69995117188
757.075678242697	2803.83325195313
757.774841987483	2795.96655273438
758.473921809734	2794.2666015625
759.172917735828	2777.83325195313
759.871829792128	2786.63330078125
760.570658004983	2750.43334960938
761.269402400727	2738.93334960938
761.968063005715	2731.83325195313
762.666639846247	2717.7333984375
763.365132948656	2707.66674804688
764.063542339235	2693.56665039063
764.761868044282	2691.93334960938
765.460110090095	2676.06665039063
766.158268502923	2665.7666015625
766.856343309055	2664.60009765625
767.554334534731	2652.93334960938
768.252242206212	2656.69995117188
768.950066349734	2662.83325195313
769.647806991519	2672.5
770.345464157785	2676.89990234375
771.043037874741	2673.19995117188
771.740528168591	2694.36669921875
772.437935065525	2693.83325195313
773.135258591721	2713.86669921875
773.832498773347	2715.80004882813
774.529655636573	2715.5
775.226729207544	2719.03344726563
775.9237195124	2741.19995117188
776.620626577273	2741.89990234375
777.317450428297	2735.03344726563
778.014191091568	2725.19995117188
778.71084859321	2737.10009765625
779.407422959314	2722.93334960938
780.103914215946	2731.39990234375
780.800322389207	2724.19995117188
781.496647505149	2719.30004882813
782.192889589828	2708
782.889048669299	2706.93334960938
783.585124769593	2702.63330078125
784.281117916749	2676.30004882813
784.977028136777	2680.56665039063
785.672855455689	2670.96655273438
786.368599899487	2657.53344726563
787.06426149415	2659.19995117188
787.759840265679	2630.39990234375
788.455336240034	2628.56665039063
789.150749443184	2599.39990234375
789.846079901066	2610.13330078125
790.541327639648	2596
791.236492684846	2589.19995117188
791.931575062593	2584.96655273438
792.6265747988	2588.66674804688
793.321491919378	2578.96655273438
794.016326450216	2581
794.711078417216	2573.89990234375
795.405747846236	2566.10009765625
796.100334763162	2573.89990234375
796.794839193855	2572.03344726563
797.489261164143	2564.46655273438
798.183600699883	2570.80004882813
798.877857826899	2565.30004882813
799.57203257103	2556.96655273438
800.266124958064	2564.03344726563
800.960135013819	2568.7333984375
801.654062764088	2572.10009765625
802.347908234653	2566.69995117188
803.041671451291	2587.60009765625
803.735352439767	2576.83325195313
804.428951225828	2580.89990234375
805.12246783524	2572.46655273438
805.815902293731	2580.69995117188
806.509254627027	2595.36669921875
807.202524860846	2587.39990234375
807.895713020911	2583.10009765625
808.58881913291	2583.83325195313
809.281843222537	2598.30004882813
809.974785315476	2595.96655273438
810.667645437398	2597.7666015625
811.360423613976	2620.39990234375
812.053119870855	2617.36669921875
812.74573423368	2625.7333984375
813.43826672809	2621.69995117188
814.130717379711	2632.7333984375
814.82308621416	2637.5
815.515373257051	2622.39990234375
816.207578533968	2640.66674804688
816.899702070521	2630.30004882813
817.591743892274	2622.96655273438
818.283704024799	2621.43334960938
818.975582493673	2614.66674804688
819.667379324434	2612.60009765625
820.359094542627	2603.89990234375
821.050728173801	2606.93334960938
821.742280243459	2595.56665039063
822.433750777137	2583.83325195313
823.125139800328	2576.86669921875
823.816447338544	2585.53344726563
824.507673417256	2556.5
825.198818061956	2558.13330078125
825.889881298107	2529.7666015625
826.580863151174	2532.83325195313
827.271763646612	2532.19995117188
827.962582809859	2523.33325195313
828.653320666354	2519.56665039063
829.343977241502	2511.2666015625
830.034552560749	2512.36669921875
830.725046649476	2507.56665039063
831.415459533092	2499.86669921875
832.105791236984	2512.2666015625
832.79604178652	2499
833.486211207093	2499.7333984375
834.176299524037	2487.33325195313
834.866306762718	2487.46655273438
835.556232948476	2481.43334960938
836.246078106648	2490.36669921875
836.935842262547	2477.83325195313
837.625525441504	2467.10009765625
838.315127668811	2459.60009765625
839.004648969763	2477.89990234375
839.694089369665	2455.93334960938
840.383448893772	2464.36669921875
841.072727567373	2469.60009765625
841.761925415724	2466.96655273438
842.451042464073	2461.53344726563
843.14007873767	2459.63330078125
843.829034261728	2456.80004882813
844.517909061494	2465.60009765625
845.206703162173	2451.06665039063
845.895416588975	2463.93334960938
846.584049367092	2451.7333984375
847.272601521716	2463.03344726563
847.961073078024	2449.63330078125
848.64946406119	2450.89990234375
849.337774496372	2455.46655273438
850.026004408721	2458.66674804688
850.71415382338	2446.39990234375
851.402222765487	2456.60009765625
852.090211260163	2455.2333984375
852.778119332531	2457.16674804688
853.46594700768	2456.33325195313
854.153694310728	2458.66674804688
854.84136126676	2454.83325195313
855.528947900851	2459.2666015625
856.21645423807	2460.2333984375
856.903880303485	2454.33325195313
857.59122612215	2448.46655273438
858.278491719102	2437.56665039063
858.965677119386	2471.63330078125
859.652782348017	2443.46655273438
860.339807430019	2443.69995117188
861.026752390401	2436.60009765625
861.713617254163	2454.33325195313
862.4004020463	2459
863.087106791771	2449.89990234375
863.773731515577	2438.7333984375
864.460276242672	2448.2666015625
865.146740998	2438.06665039063
865.833125806519	2432.89990234375
866.519430693166	2435.33325195313
867.205655682859	2448.19995117188
867.891800800528	2443.66674804688
868.577866071077	2433.5
869.263851519411	2431.5
869.949757170428	2430.7666015625
870.635583048991	2430.66674804688
871.32132918	2437.5
872.006995588305	2432.86669921875
872.692582298776	2433.53344726563
873.378089336239	2427
874.063516725557	2444.60009765625
874.748864491547	2437.33325195313
875.434132659032	2428.33325195313
876.119321252826	2421.60009765625
876.804430297741	2435.66674804688
877.489459818561	2426.36669921875
878.174409840071	2425.60009765625
878.859280387058	2422.63330078125
879.544071484291	2420.56665039063
880.228783156516	2423.33325195313
880.913415428491	2416.33325195313
881.597968324963	2429.5
882.282441870662	2421.80004882813
882.966836090319	2418.10009765625
883.651151008631	2426.93334960938
884.335386650332	2428.2333984375
885.019543040092	2416.13330078125
885.703620202619	2435.46655273438
886.387618162589	2427.93334960938
887.071536944673	2428.46655273438
887.755376573528	2416.69995117188
888.439137073816	2422.80004882813
889.122818470175	2426.10009765625
889.806420787258	2419.7666015625
890.489944049672	2422.60009765625
891.173388282049	2412
891.856753508995	2414.43334960938
892.540039755122	2433.93334960938
893.223247045004	2423.2333984375
893.906375403234	2422.13330078125
894.589424854392	2424.60009765625
895.272395423038	2415.33325195313
895.955287133734	2428.06665039063
896.63810001103	2430.03344726563
897.320834079461	2420
898.003489363568	2427.80004882813
898.686065887858	2431.66674804688
899.36856367686	2423.33325195313
900.050982755079	2418.86669921875
900.733323147003	2428.33325195313
901.415584877131	2414.86669921875
902.097767969938	2425.89990234375
902.779872449888	2411.93334960938
903.461898341451	2404.13330078125
904.143845669077	2420.2666015625
904.825714457224	2411.53344726563
905.507504730308	2421.96655273438
906.189216512765	2413.96655273438
906.870849829014	2427.2666015625
907.552404703471	2410.7333984375
908.233881160522	2419.86669921875
908.915279224572	2422.96655273438
909.596598920006	2418.36669921875
910.277840271203	2419.36669921875
910.959003302514	2413.5
911.640088038313	2426.66674804688
912.321094502941	2408.53344726563
913.002022720746	2424.33325195313
913.682872716048	2411.53344726563
914.363644513188	2416.33325195313
915.044338136476	2427.06665039063
915.724953610202	2430.46655273438
916.405490958692	2431.66674804688
917.085950206205	2416.56665039063
917.766331377049	2426.7666015625
918.446634495482	2419.96655273438
919.126859585768	2411.86669921875
919.80700667217	2420.96655273438
920.48707577892	2425.19995117188
921.167066930274	2422.46655273438
921.84698015045	2415.89990234375
922.52681546367	2438.66674804688
923.206572894145	2428.16674804688
923.886252466086	2428.69995117188
924.565854203674	2437.06665039063
925.245378131118	2442.46655273438
925.924824272576	2451.53344726563
926.604192652219	2439.5
927.283483294226	2451.63330078125
927.962696222727	2447.06665039063
928.641831461875	2455.80004882813
929.320889035807	2465.7333984375
929.999868968653	2461.7333984375
930.67877128452	2472.63330078125
931.357596007533	2481.60009765625
932.036343161773	2492.56665039063
932.715012771355	2514.69995117188
933.393604860348	2526.96655273438
934.072119452835	2531.53344726563
934.75055657288	2540.13330078125
935.428916244542	2553.66674804688
936.107198491864	2563.83325195313
936.785403338917	2570.96655273438
937.463530809688	2587.30004882813
938.141580928246	2593.36669921875
938.819553718583	2618.43334960938
939.497449204711	2642.7666015625
940.175267410623	2660.80004882813
940.853008360329	2664.96655273438
941.530672077788	2683.89990234375
942.208258586998	2696.2666015625
942.885767911913	2714.66674804688
943.563200076481	2723.5
944.240555104664	2706.69995117188
944.917833020397	2733.83325195313
945.595033847615	2710.60009765625
946.272157610236	2718.69995117188
946.949204332176	2723.19995117188
947.626174037354	2712.56665039063
948.303066749653	2707.7333984375
948.979882492961	2712
949.656621291176	2708.43334960938
950.333283168158	2709.16674804688
951.009868147772	2702.46655273438
951.686376253876	2704.56665039063
952.362807510319	2702.7666015625
953.03916194094	2706.7333984375
953.715439569579	2704.13330078125
954.391640420038	2705.03344726563
955.06776451615	2700.06665039063
955.743811881707	2715.56665039063
956.419782540512	2712.93334960938
957.095676516357	2712.96655273438
957.771493833031	2702.63330078125
958.447234514284	2711.89990234375
959.1228985839	2709.06665039063
959.798486065618	2714.53344726563
960.473996983201	2722.03344726563
961.149431360383	2717.36669921875
961.824789220883	2704.66674804688
962.500070588445	2722.66674804688
963.175275486768	2725.66674804688
963.850403939559	2716.93334960938
964.525455970519	2710.53344726563
965.200431603327	2733.46655273438
965.87533086168	2728.60009765625
966.55015376924	2736.2333984375
967.224900349674	2733.53344726563
967.899570626641	2735.2333984375
968.574164623781	2738.83325195313
969.248682364736	2732.06665039063
969.923123873136	2730.7666015625
970.597489172609	2734.03344726563
971.271778286756	2739.36669921875
971.945991239205	2723.7666015625
972.620128053535	2724.83325195313
973.294188753347	2745.69995117188
973.968173362215	2749.2666015625
974.642081903705	2743.33325195313
975.315914401398	2740.33325195313
975.989670878847	2724.39990234375
976.663351359581	2730.30004882813
977.336955867169	2732.5
978.010484425128	2740.83325195313
978.683937056976	2744.86669921875
979.357313786235	2731.7666015625
980.030614636411	2741.7666015625
980.703839631009	2736
981.376988793509	2731
982.050062147394	2721.96655273438
982.723059716145	2719.63330078125
983.395981523227	2716.83325195313
984.068827592083	2724.93334960938
984.741597946183	2724.93334960938
985.414292608954	2721.96655273438
986.086911603841	2719.69995117188
986.759454954258	2714.13330078125
987.43192268363	2696.33325195313
988.104314815357	2692.36669921875
988.776631372847	2684.7333984375
989.448872379481	2678.56665039063
990.121037858658	2672.60009765625
990.793127833742	2659.66674804688
991.465142328101	2632.83325195313
992.137081365105	2624.5
992.808944968082	2610.46655273438
993.480733160403	2593.56665039063
994.152445965388	2578.53344726563
994.824083406358	2573.5
995.495645506652	2568.2333984375
996.167132289564	2528.03344726563
996.838543778396	2531.39990234375
997.509879996448	2521.2333984375
998.181140967001	2525.06665039063
998.852326713332	2507.2333984375
999.52343725872	2513.7666015625
1000.19447262642	2506.2666015625
1000.86543283969	2498.7333984375
1001.53631792176	2498.80004882813
1002.20712789589	2484.5
1002.8778627853	2487.06665039063
1003.5485226132	2479.2333984375
1004.21910740281	2482.46655273438
1004.88961717734	2474.2666015625
1005.56005195998	2455.66674804688
1006.23041177392	2461.2333984375
1006.90069664235	2447.69995117188
1007.57090658843	2458.46655273438
1008.24104163533	2442.96655273438
1008.9111018062	2467.03344726563
1009.5810871242	2454.19995117188
1010.25099761246	2449.33325195313
1010.92083329411	2438.66674804688
1011.59059419229	2437.7666015625
1012.26028033009	2436.69995117188
1012.92989173064	2440.16674804688
1013.59942841704	2427.06665039063
1014.26889041236	2420.39990234375
1014.9382777397	2427.13330078125
1015.60759042214	2425
1016.27682848274	2416.89990234375
1016.94599194456	2421.96655273438
1017.61508083064	2417.83325195313
1018.28409516405	2404.36669921875
1018.95303496781	2409.39990234375
1019.62190026495	2403.5
1020.29069107848	2401.33325195313
1020.95940743142	2405.86669921875
1021.62804934678	2403.13330078125
1022.29661684754	2398.66674804688
1022.96510995669	2397.43334960938
1023.63352869723	2396.60009765625
1024.30187309211	2399.33325195313
1024.9701431643	2386.36669921875
1025.63833893675	2381.86669921875
1026.30646043241	2383.96655273438
1026.97450767423	2376.53344726563
1027.64248068513	2395.03344726563
1028.31037948804	2377.66674804688
1028.97820410587	2384.83325195313
1029.64595456152	2371.66674804688
1030.31363087791	2362.66674804688
1030.98123307792	2368.69995117188
1031.64876118443	2369.33325195313
1032.31621522033	2356.7333984375
1032.98359520847	2362.86669921875
1033.65090117172	2364.63330078125
1034.31813313293	2359.5
1034.98529111494	2366.93334960938
1035.65237514059	2370.33325195313
1036.31938523272	2358.5
1036.98632141412	2357.96655273438
1037.65318370763	2362.10009765625
1038.31997213604	2362.83325195313
1038.98668672215	2346.80004882813
1039.65332748875	2357.89990234375
1040.31989445862	2354.10009765625
1040.98638765453	2349.66674804688
1041.65280709925	2348.30004882813
1042.31915281553	2366.36669921875
1042.98542482613	2353.2666015625
1043.65162315378	2340.93334960938
1044.31774782121	2349.86669921875
1044.98379885116	2355.80004882813
1045.64977626633	2345.89990234375
1046.31568008945	2349.2333984375
1046.9815103432	2348.03344726563
1047.64726705028	2353.10009765625
1048.31295023339	2349.16674804688
1048.9785599152	2344
1049.64409611836	2340.7333984375
1050.30955886557	2351.96655273438
1050.97494817946	2347.36669921875
1051.64026408267	2348.19995117188
1052.30550659786	2352.10009765625
1052.97067574765	2346.83325195313
1053.63577155465	2338.66674804688
1054.3007940415	2361.39990234375
1054.96574323079	2350.60009765625
1055.63061914513	2346.56665039063
1056.29542180711	2348.39990234375
1056.9601512393	2336.96655273438
1057.6248074643	2355.33325195313
1058.28939050465	2322
1058.95390038293	2336.69995117188
1059.61833712169	2338.56665039063
1060.28270074348	2335.60009765625
1060.94699127081	2337.10009765625
1061.61120872624	2336.7333984375
1062.27535313228	2343.63330078125
1062.93942451144	2345.43334960938
1063.60342288622	2335.69995117188
1064.26734827914	2349.30004882813
1064.93120071268	2337.83325195313
1065.59498020931	2344
1066.25868679151	2333.66674804688
1066.92232048176	2348.33325195313
1067.5858813025	2339.19995117188
1068.2493692762	2345.53344726563
1068.9127844253	2341.5
1069.57612677221	2336.96655273438
1070.23939633939	2337.89990234375
1070.90259314925	2343.5
1071.5657172242	2339.5
1072.22876858664	2329.93334960938
1072.89174725898	2342.03344726563
1073.55465326359	2353.83325195313
1074.21748662287	2351.2333984375
1074.88024735918	2343.19995117188
1075.5429354949	2347.83325195313
1076.20555105238	2339.46655273438
1076.86809405397	2345.53344726563
1077.53056452202	2358.53344726563
1078.19296247885	2354.46655273438
1078.8552879468	2342.7333984375
1079.51754094819	2332.16674804688
1080.17972150533	2343.2666015625
1080.84182964051	2345.13330078125
1081.50386537605	2347.69995117188
1082.16582873422	2350.10009765625
1082.82771973732	2355.16674804688
1083.4895384076	2357.83325195313
1084.15128476735	2347.43334960938
1084.81295883881	2353.39990234375
1085.47456064424	2347.7333984375
1086.13609020587	2358.46655273438
1086.79754754595	2352.30004882813
1087.45893268671	2357.46655273438
1088.12024565035	2356.19995117188
1088.7814864591	2341.36669921875
1089.44265513515	2352.19995117188
1090.10375170072	2354.66674804688
1090.76477617797	2351.7333984375
1091.42572858909	2348.7666015625
1092.08660895627	2349.7666015625
1092.74741730167	2360
1093.40815364743	2357.36669921875
1094.06881801572	2359.43334960938
1094.72941042867	2344.7666015625
1095.38993090844	2355.93334960938
1096.05037947713	2355.30004882813
1096.71075615686	2353.5
1097.37106096976	2357.10009765625
1098.03129393793	2352.46655273438
1098.69145508346	2353.03344726563
1099.35154442846	2350.46655273438
1100.01156199499	2355.63330078125
1100.67150780513	2348.53344726563
1101.33138188094	2354.69995117188
