-62.8802656760145	1572.03332519531
-62.0712801655087	1574.23327636719
-61.2624144408879	1573.43334960938
-60.4536684613764	1574.09997558594
-59.6450421861946	1571.40002441406
-58.8365355746153	1572.96667480469
-58.0281485858832	1574.19995117188
-57.2198811793115	1573.30004882813
-56.4117333141813	1572.80004882813
-55.6037049498382	1573.69995117188
-54.7957960456036	1573
-53.9880065608474	1572.09997558594
-53.1803364549354	1572.93334960938
-52.3727856872778	1572.43334960938
-51.5653542172727	1572.80004882813
-50.7580420043586	1573.63330078125
-49.9508490079698	1574.16662597656
-49.143775187589	1572.36669921875
-48.3368205026788	1573.03332519531
-47.5299849127581	1573.46667480469
-46.7232683773338	1573.30004882813
-45.9166708559529	1573.19995117188
-45.1101923081504	1573
-44.3038326935136	1573.56665039063
-43.4975919716136	1573.33337402344
-42.6914701020778	1573.43334960938
-41.8854670445174	1572.93334960938
-41.07958275858	1572
-40.2738172039169	1574.33337402344
-39.4681703402036	1574.26672363281
-38.6626421271476	1571.53332519531
-37.8572325244484	1573.19995117188
-37.0519414918416	1573.59997558594
-36.2467689890625	1573.19995117188
-35.441714975895	1573.43334960938
-34.6367794121022	1574.13330078125
-33.8319622574879	1573.90002441406
-33.0272634718794	1573.23327636719
-32.2226830151083	1574.43334960938
-31.4182208470059	1573.46667480469
-30.6138769274635	1573.93334960938
-29.8096512163686	1572.69995117188
-29.0055436736122	1572.13330078125
-28.2015542591217	1573.63330078125
-27.397682932832	1573.13330078125
-26.5939296547063	1573.90002441406
-25.7902943847235	1572.56665039063
-24.9867770828543	1572.30004882813
-24.1833777091256	1573.86669921875
-23.3800962235519	1573.40002441406
-22.5769325861837	1573.16662597656
-21.7738867570794	1572.16662597656
-20.9709586963133	1573.09997558594
-20.1681483639916	1574
-19.365455720212	1572.66662597656
-18.5628807251165	1572.90002441406
-17.7604233388427	1574.56665039063
-16.9580835215601	1573.53332519531
-16.1558612334539	1573.96667480469
-15.3537564347134	1572.96667480469
-14.5517690855595	1574.06665039063
-13.7498991462288	1572.76672363281
-12.94814657697	1573.63330078125
-12.1465113380514	1572.46667480469
-11.3449933897571	1573.63330078125
-10.543592692387	1573.23327636719
-9.74230920626065	1573.13330078125
-8.9411428917136	1574.06665039063
-8.14009370910902	1573.69995117188
-7.33916161880982	1573.59997558594
-6.53834658120667	1572.96667480469
-5.73764855670195	1572.40002441406
-4.9370675057178	1573.06665039063
-4.13660338870815	1574.36669921875
-3.33625616610644	1574.09997558594
-2.53602579839399	1573.93334960938
-1.73591224606778	1572.96667480469
-0.93591546962846	1574.26672363281
-0.136035429612425	1573.43334960938
0.663727913452362	1577.66662597656
1.46337459899013	1591.03332519531
2.26290466644961	1611.5
3.06231815521169	1612.56665039063
3.86161510468576	1587.36669921875
4.66079555422945	1575.96667480469
5.45985954321688	1572.63330078125
6.25880711096637	1573.26672363281
7.05763829681681	1573.73327636719
7.85635314006331	1573.83337402344
8.65495168000148	1573.69995117188
9.45343395589124	1572.96667480469
10.251800007001	1572.46667480469
11.0500498725555	1572.83337402344
11.848183591788	1572.33337402344
12.6462012038881	1574.26672363281
13.4441027480499	1573.06665039063
14.2418882634437	1573.76672363281
15.0395577892247	1572.33337402344
15.8371113645201	1574.09997558594
16.6345490284539	1574.09997558594
17.4318708201263	1575.06665039063
18.2290767786302	1574.09997558594
19.0261669430227	1573.96667480469
19.8231413523778	1574.06665039063
20.6200000456976	1573.73327636719
21.4167430620288	1572.56665039063
22.2133704403548	1573.83337402344
23.0098822196713	1572.46667480469
23.8062784389426	1574.23327636719
24.6025591371175	1573.30004882813
25.3987243531334	1574.16662597656
26.1947741259042	1574.09997558594
26.9907084943443	1574.19995117188
27.7865274973208	1573.93334960938
28.5822311737091	1572.83337402344
29.3778195623575	1574
30.1732927021065	1573.59997558594
30.9686506317656	1574.16662597656
31.7638933901446	1574.5
32.5590210160179	1573.56665039063
33.3540335481646	1572.23327636719
34.1489310253285	1573.66662597656
34.9437134862418	1575.36669921875
35.7383809696253	1573.83337402344
36.5329335141808	1573.59997558594
37.3273711585903	1573.73327636719
38.1216939415287	1574.53332519531
38.9159019016394	1573.73327636719
39.7099950775626	1573.06665039063
40.5039735079151	1573.80004882813
41.2978372312983	1572.63330078125
42.0915862862985	1572.56665039063
42.8852207114822	1573.26672363281
43.6787405454012	1572.26672363281
44.4721458265996	1574.16662597656
45.2654365935904	1574
46.058612884867	1573.33337402344
46.8516747389399	1572.90002441406
47.6446221942481	1573.90002441406
48.4374552892714	1573.69995117188
49.2301740624383	1574.09997558594
50.0227785521661	1573.36669921875
50.8152687968608	1573.59997558594
51.6076448349091	1575.33337402344
52.3999067046866	1574.43334960938
53.1920544445376	1573.90002441406
53.9840880928151	1574.06665039063
54.7760076878371	1573.09997558594
55.567813267906	1573.19995117188
56.3595048713054	1573.36669921875
57.1510825363196	1575.16662597656
57.9425463012015	1575.30004882813
58.733896204193	1576.23327636719
59.5251322835168	1578.26672363281
60.3162545773685	1579.83337402344
61.1072631239722	1583.33337402344
61.8981579614694	1588.03332519531
62.6889391280379	1591.5
63.4796066618127	1598.06665039063
64.2701606009215	1605.16662597656
65.0606009834849	1615.40002441406
65.8509278475725	1630.63330078125
66.6411412312945	1641.16662597656
67.4312411726863	1656.16662597656
68.221227709804	1678.09997558594
69.0111008806766	1696.43334960938
69.8008607233221	1726.73327636719
70.5905072757234	1752.43334960938
71.3800405758802	1783.19995117188
72.1694606617374	1823.03332519531
72.9587675712524	1858.46667480469
73.747961342356	1908.69995117188
74.5370420129716	1957.90002441406
75.3260096209917	2012.19995117188
76.1148642042977	2073.5
76.9036058007681	2118.69995117188
77.6922344482463	2173.16674804688
78.4807501845685	2207.06665039063
79.2691530475681	2259.19995117188
80.0574430750156	2311.06665039063
80.845620304738	2345.10009765625
81.6336847744759	2376.69995117188
82.4216365220025	2417.7333984375
83.2094755850442	2441.33325195313
83.9972020013364	2465.53344726563
84.7848158085834	2489.03344726563
85.5723170444668	2500.80004882813
86.3597057466849	2518.93334960938
87.1469819528733	2501.16674804688
87.9341457006927	2531.7666015625
88.7211970277526	2530.7333984375
89.5081359716837	2521.30004882813
90.2949625700579	2519.03344726563
91.081676860484	2538.06665039063
91.8682788805079	2540.96655273438
92.6547686676808	2544.46655273438
93.4411462595307	2551.30004882813
94.2274116935869	2567.86669921875
95.0135650073277	2571.36669921875
95.7996062382647	2589.93334960938
96.5855354238424	2600
97.3713526015265	2595.33325195313
98.157057808752	2595.2333984375
98.9426510829309	2604.33325195313
99.7281324614842	2603.36669921875
100.513501981782	2642.10009765625
101.298759681221	2616.80004882813
102.083905597144	2650.83325195313
102.868939766891	2645.83325195313
103.653862227798	2657.06665039063
104.438673017168	2649.69995117188
105.223372172302	2652.83325195313
106.007959730469	2663.69995117188
106.792435728938	2668.16674804688
107.576800204962	2673.69995117188
108.361053195763	2656.16674804688
109.145194738568	2672.93334960938
109.929224870558	2668.2333984375
110.71314362894	2680.60009765625
111.496951050867	2675.93334960938
112.280647173509	2673.2666015625
113.064232033987	2662.89990234375
113.847705669429	2691.46655273438
114.631068116938	2686.69995117188
115.414319413616	2698.13330078125
116.197459596525	2700.2666015625
116.980488702734	2726.60009765625
117.76340676928	2711.7333984375
118.546213833194	2734.7666015625
119.328909931491	2728.89990234375
120.111495101165	2755
120.893969379195	2751.80004882813
121.676332802552	2786.06665039063
122.458585408185	2796.39990234375
123.240727233033	2804.83325195313
124.022758314001	2826.10009765625
124.804678688012	2849.16674804688
125.586488391943	2851.83325195313
126.368187462664	2863.19995117188
127.149775937045	2880.16674804688
127.931253851906	2885.7333984375
128.712621244105	2903.03344726563
129.493878150424	2904.19995117188
130.275024607679	2926.19995117188
131.05606065263	2925.16674804688
131.836986322054	2939.66674804688
132.617801652702	2943.89990234375
133.398506681303	2967.43334960938
134.179101444575	2965.96655273438
134.959585979225	2995.33325195313
135.739960321933	3003.2666015625
136.520224509383	3019.10009765625
137.30037857821	3024.2333984375
138.080422565087	3040.03344726563
138.860356506612	3048.86669921875
139.640180439409	3051.89990234375
140.419894400069	3070.89990234375
141.199498425174	3070.93334960938
141.978992551284	3079.13330078125
142.758376814962	3099.16674804688
143.537651252719	3099.7666015625
144.3168159011	3120.46655273438
145.095870796584	3130.7333984375
145.874815975682	3161.10009765625
146.653651474851	3180.96655273438
147.432377330548	3192.86669921875
148.210993579225	3199.46655273438
148.989500257303	3234.33325195313
149.767897401202	3248.19995117188
150.546185047308	3279.5
151.324363232007	3279.2333984375
152.102431991664	3288.69995117188
152.880391362628	3295.43334960938
153.658241381243	3298.13330078125
154.435982083826	3279.93334960938
155.213613506675	3266.36669921875
155.991135686104	3254.80004882813
156.768548658349	3230.56665039063
157.545852459702	3237.89990234375
158.323047126388	3217.93334960938
159.100132694662	3203.03344726563
159.877109200719	3177.96655273438
160.653976680759	3170.43334960938
161.430735170968	3165.83325195313
162.207384707527	3147.60009765625
162.98392532658	3136.10009765625
163.760357064266	3140.60009765625
164.536679956709	3132.36669921875
165.312894040019	3123.36669921875
166.08899935029	3119.7333984375
166.86499592361	3099
167.64088379603	3096.80004882813
168.416663003602	3124.06665039063
169.19233358237	3099.13330078125
169.967895568343	3098.96655273438
170.743348997518	3093.60009765625
171.518693905903	3085.30004882813
172.293930329461	3079.93334960938
173.06905830415	3080.19995117188
173.844077865923	3085.86669921875
174.618989050701	3107.03344726563
175.393791894402	3133.93334960938
176.168486432918	3117.16674804688
176.943072702149	3149.10009765625
177.717550737943	3147.69995117188
178.491920576174	3175.66674804688
179.266182252671	3176.39990234375
180.040335803267	3196
180.814381263757	3196.66674804688
181.58831866996	3217.19995117188
182.362148057631	3219.2666015625
183.135869462553	3204.39990234375
183.909482920467	3214.03344726563
184.682988467117	3208.39990234375
185.456386138212	3220.36669921875
186.22967596947	3220.19995117188
187.002857996574	3234.93334960938
187.775932255208	3259.36669921875
188.548898781025	3276.33325195313
189.32175760968	3293.96655273438
190.094508776801	3326.5
190.867152318005	3307.60009765625
191.639688268901	3326.36669921875
192.412116665058	3318.96655273438
193.184437542076	3302.53344726563
193.9566509355	3259.86669921875
194.728756880869	3249.43334960938
195.500755413713	3227.43334960938
196.272646569558	3205.03344726563
197.044430383894	3184.7666015625
197.816106892204	3168.7333984375
198.587676129964	3161.89990234375
199.359138132634	3142.53344726563
200.130492935633	3137.83325195313
200.901740574413	3134.66674804688
201.672881084377	3133.56665039063
202.443914500921	3118.60009765625
203.214840859416	3116.13330078125
203.985660195246	3113.89990234375
204.756372543762	3107.93334960938
205.526977940299	3129.10009765625
206.297476420174	3117.46655273438
207.067868018711	3120.96655273438
207.838152771188	3126.46655273438
208.608330712894	3137.63330078125
209.378401879107	3125.16674804688
210.148366305059	3144.60009765625
210.918224025992	3130.89990234375
211.687975077139	3103.16674804688
212.457619493685	3101.56665039063
213.227157310848	3098.39990234375
213.996588563789	3096.46655273438
214.76591328768	3091.53344726563
215.535131517664	3083.7333984375
216.304243288882	3058.30004882813
217.073248636458	3074.89990234375
217.842147595492	3074.43334960938
218.610940201072	3073.5
219.379626488284	3071.7666015625
220.148206492193	3068.19995117188
220.91668024783	3066.5
221.685047790247	3060.53344726563
222.453309154456	3050.46655273438
223.221464375454	3052.7333984375
223.989513488251	3049.60009765625
224.75745652781	3047.83325195313
225.525293529093	3057.63330078125
226.293024527053	3061
227.060649556623	3059.66674804688
227.828168652717	3047.66674804688
228.595581850241	3056.13330078125
229.362889184086	3026.66674804688
230.130090689128	3035.53344726563
230.89718640023	3017.06665039063
231.664176352239	3012.66674804688
232.431060579987	3004.69995117188
233.197839118289	2995.30004882813
233.964512001954	2996.30004882813
234.731079265774	2994.2666015625
235.497540944521	2981
236.263897072963	2978.7333984375
237.030147685833	2951.63330078125
237.796292817881	2949.06665039063
238.562332503806	2945
239.328266778331	2947.43334960938
240.094095676137	2933.43334960938
240.859819231909	2928.2333984375
241.62543748029	2925.63330078125
242.390950455954	2926.43334960938
243.156358193514	2918.93334960938
243.921660727599	2921
244.68685809281	2911.80004882813
245.451950323743	2908.46655273438
246.216937454966	2895.5
246.981819521049	2891.30004882813
247.746596556546	2906.03344726563
248.511268595976	2904.16674804688
249.275835673871	2901.30004882813
250.04029782473	2902.96655273438
250.804655083059	2885.16674804688
251.568907483323	2893.30004882813
252.333055059988	2873.46655273438
253.097097847503	2868.30004882813
253.861035880304	2886.03344726563
254.62486919282	2872.33325195313
255.388597819456	2878.16674804688
256.152221794596	2856.16674804688
256.91574115264	2871.06665039063
257.679155927928	2876.5
258.442466154831	2854.80004882813
259.205671867672	2864.10009765625
259.968773100793	2876.66674804688
260.731769888482	2876.33325195313
261.494662265052	2862.2333984375
262.257450264777	2864.2333984375
263.020133921935	2856.86669921875
263.782713270754	2866.53344726563
264.545188345504	2860.93334960938
265.307559180386	2851.7666015625
266.069825809631	2855.7333984375
266.831988267425	2842.66674804688
267.594046587959	2841.63330078125
268.356000805395	2830.93334960938
269.117850953891	2836.83325195313
269.879597067602	2833.2333984375
270.641239180637	2825.83325195313
271.402777327131	2835.66674804688
272.164211541161	2833.83325195313
272.925541856831	2841.03344726563
273.686768308211	2855.56665039063
274.44789092936	2837.16674804688
275.208909754314	2844.96655273438
275.969824817121	2849.16674804688
276.730636151784	2841.86669921875
277.491343792312	2835.13330078125
278.251947772692	2838.63330078125
279.012448126904	2848.30004882813
279.77284488891	2854.30004882813
280.533138092657	2852.16674804688
281.293327772081	2856.36669921875
282.053413961105	2860.56665039063
282.813396693626	2861.86669921875
283.573276003551	2891.89990234375
284.333051924748	2912.13330078125
285.092724491092	2912.30004882813
285.852293736427	2920
286.611759694607	2903.33325195313
287.371122399433	2863.63330078125
288.13038188474	2891.46655273438
288.889538184304	2874.53344726563
289.648591331919	2875.46655273438
290.407541361362	2865.39990234375
291.166388306376	2866.19995117188
291.925132200712	2867.03344726563
292.683773078096	2875.39990234375
293.44231097225	2867.7333984375
294.200745916861	2882.10009765625
294.959077945631	2874.36669921875
295.717307092225	2877.10009765625
296.475433390307	2901.96655273438
297.233456873527	2899.80004882813
297.991377575513	2899.96655273438
298.749195529897	2905.60009765625
299.506910770276	2915.19995117188
300.264523330243	2912.2666015625
301.022033243374	2922.7666015625
301.779440543239	2929.30004882813
302.536745263392	2940.86669921875
303.29394743736	2947.03344726563
304.051047098689	2958.39990234375
304.808044280878	2957.33325195313
305.564939017422	2981
306.321731341806	2969.69995117188
307.07842128751	2965.19995117188
307.835008887983	2987.10009765625
308.59149417667	2961.69995117188
309.347877187004	2959
310.104157952396	2971.7333984375
310.860336506259	2967.63330078125
311.616412881976	2970.19995117188
312.372387112933	2974.60009765625
313.128259232476	2995.80004882813
313.88402927397	2990.16674804688
314.639697270744	3005.10009765625
315.395263256123	3002
316.150727263413	3002.5
316.906089325921	2991.19995117188
317.661349476911	3010.69995117188
318.416507749671	3000.66674804688
319.171564177441	2984.69995117188
319.926518793482	3007.63330078125
320.681371630998	3004.30004882813
321.436122723229	2998.96655273438
322.19077210336	3001.86669921875
322.945319804596	2980.16674804688
323.699765860095	2988.06665039063
324.454110303027	2979.86669921875
325.208353166543	2989.10009765625
325.962494483781	2997.86669921875
326.716534287853	2986.5
327.470472611881	2989.66674804688
328.224309488948	2996.19995117188
328.97804495215	2981.33325195313
329.73167903455	3018.89990234375
330.485211769199	2990.2333984375
331.238643189142	3011.2333984375
331.99197332741	3022.69995117188
332.745202217023	3024.66674804688
333.498329890974	3018.06665039063
334.251356382268	3018.06665039063
335.00428172386	3034
335.757105948733	3052.63330078125
336.509829089831	3046.39990234375
337.262451180083	3054.60009765625
338.01497225242	3076.56665039063
338.767392339755	3067.66674804688
339.519711474974	3074.33325195313
340.271929690979	3080.7666015625
341.024047020618	3068.10009765625
341.776063496779	3076.89990234375
342.527979152272	3090
343.279794019952	3090.7333984375
344.031508132625	3085.2333984375
344.783121523104	3102.13330078125
345.534634224173	3114.7666015625
346.286046268628	3099.19995117188
347.03735768921	3116.03344726563
347.788568518696	3128
348.53967878981	3128
349.29068853528	3134.30004882813
350.041597787827	3140.13330078125
350.79240658014	3131.89990234375
351.543114944923	3153.60009765625
352.293722914834	3172.39990234375
353.044230522551	3169.7333984375
353.794637800701	3172.63330078125
354.544944781933	3195.7666015625
355.295151498867	3190.86669921875
356.045257984108	3204
356.795264270262	3216
357.545170389901	3219.60009765625
358.294976375607	3223.96655273438
359.044682259922	3242.30004882813
359.794288075399	3250.69995117188
360.54379385457	3279.03344726563
361.293199629947	3296.89990234375
362.04250543405	3326.69995117188
362.79171129935	3325.66674804688
363.540817258351	3364.06665039063
364.289823343495	3398.69995117188
365.03872958725	3432.7666015625
365.787536022048	3448.13330078125
366.536242680329	3487.86669921875
367.284849594499	3527.03344726563
368.033356796962	3578.60009765625
368.781764320094	3633.33325195313
369.530072196302	3683.19995117188
370.278280457919	3760.66674804688
371.026389137312	3832.80004882813
371.774398266814	3948.69995117188
372.522307878752	4055.96655273438
373.270118005429	4177.7666015625
374.017828679145	4354.36669921875
374.765439932199	4520.39990234375
375.512951796856	4762.66650390625
376.260364305385	5031.86669921875
377.007677490008	5402.2998046875
377.754891382986	5861.533203125
378.502006016533	6548.39990234375
379.249021422861	7741
379.995937634157	9515.6337890625
380.742754682616	12067.56640625
381.489472600403	14971.7998046875
382.236091419679	16847.400390625
382.982611172583	16612.19921875
383.729031891253	14294
384.475353607811	11155.533203125
385.221576354359	8479.900390625
385.967700162992	6624.93310546875
386.713725065802	5521.7998046875
387.459651094842	4900.56689453125
388.205478282181	4555.36669921875
388.951206659853	4387.7333984375
389.696836259896	4328.7998046875
390.442367114332	4281.06689453125
391.18779925515	4296.89990234375
391.933132714366	4355.2001953125
392.678367523939	4456.966796875
393.423503715858	4588.7998046875
394.168541322056	4725.466796875
394.913480374495	4948.36669921875
395.658320905081	5246.66650390625
396.403062945756	5580.7001953125
397.147706528413	6005.66650390625
397.89225168494	6511.33349609375
398.636698447223	7116.86669921875
399.381046847131	7872.533203125
400.125296916507	8842.8330078125
400.869448687208	10149.8662109375
401.613502191047	11788.466796875
402.357457459854	13680.8330078125
403.101314525419	15654.56640625
403.845073419553	17201.533203125
404.588734174014	18172.5
405.332296820579	18152.599609375
406.075761390996	17393.267578125
406.819127917025	15782.6669921875
407.562396430365	13671.3662109375
408.305566962747	11590.56640625
409.048639545884	9848.033203125
409.79161421145	8448.400390625
410.534490991132	7379.56689453125
411.277269916601	6613.60009765625
412.019951019504	6058.533203125
412.762534331484	5651.39990234375
413.505019884163	5336.93310546875
414.247407709166	5063.39990234375
414.989697838098	4859.2998046875
415.731890302547	4659.466796875
416.473985134093	4538.36669921875
417.215982364291	4404.7998046875
417.957882024722	4335.533203125
418.699684146901	4251.7666015625
419.44138876237	4191.2666015625
420.182995902647	4125.13330078125
420.92450559923	4058.46655273438
421.665917883614	4043.2666015625
422.407232787286	3999.69995117188
423.1484503417	3964.5
423.889570578319	3921.89990234375
424.630593528589	3879.13330078125
425.371519223938	3850.43334960938
426.112347695776	3842.03344726563
426.853078975517	3834.93334960938
427.593713094549	3822.30004882813
428.33425008426	3804.03344726563
429.074689976016	3804.7666015625
429.815032801174	3803.53344726563
430.555278591075	3798
431.295427377053	3817.10009765625
432.035479190425	3819.7333984375
432.775434062504	3837.96655273438
433.515292024581	3838.13330078125
434.255053107939	3845.60009765625
434.994717343853	3869.03344726563
435.734284763569	3871.2666015625
436.473755398347	3896.06665039063
437.213129279415	3901.13330078125
437.952406437988	3938.69995117188
438.691586905289	3955.7333984375
439.430670712505	3967.93334960938
440.169657890821	3995.7666015625
440.908548471419	4024
441.647342485448	4045.06665039063
442.386039964063	4081.80004882813
443.124640938399	4100.06689453125
443.863145439578	4139.56689453125
444.601553498714	4130.2666015625
445.339865146909	4165.43310546875
446.078080415243	4205.5
446.816199334798	4216.2666015625
447.55422193663	4236.63330078125
448.292148251798	4280.13330078125
449.029978311342	4271.86669921875
449.767712146277	4279.533203125
450.505349787637	4260.466796875
451.242891266397	4208.60009765625
451.980336613571	4204.06689453125
452.717685860128	4133.43310546875
453.454939037037	4122.466796875
454.192096175247	4088.33325195313
454.929157305714	4069.19995117188
455.666122459351	4020.80004882813
456.402991667088	3957.7333984375
457.139764959817	3925.2666015625
457.87644236845	3892.7666015625
458.613023923856	3854.03344726563
459.349509656917	3812.2333984375
460.085899598469	3802.60009765625
460.822193779379	3763.86669921875
461.55839223047	3708.10009765625
462.294494982574	3658.93334960938
463.030502066492	3619.83325195313
463.766413513017	3566.53344726563
464.502229352947	3503.80004882813
465.237949617054	3447
465.97357433608	3377.10009765625
466.709103540808	3312.16674804688
467.444537261952	3241.96655273438
468.179875530237	3208
468.915118376397	3139.06665039063
469.650265831115	3085.06665039063
470.385317925091	3029.2666015625
471.120274689003	2981.69995117188
471.855136153509	2929.5
472.589902349272	2912.13330078125
473.32457330693	2861.83325195313
474.059149057119	2859
474.79362963045	2812.7333984375
475.528015057532	2803.43334960938
476.262305368964	2768.33325195313
476.996500595326	2761.19995117188
477.730600767187	2761.19995117188
478.464605915109	2748.16674804688
479.198516069647	2723.36669921875
479.932331261319	2743.96655273438
480.666051520664	2745.36669921875
481.399676878186	2734.86669921875
482.133207364394	2729.06665039063
482.866643009762	2731.7333984375
483.599983844782	2734.10009765625
484.333229899901	2727.96655273438
485.066381205595	2727.66674804688
485.799437792281	2726.7666015625
486.532399690403	2722.60009765625
487.265266930378	2735.5
487.99803954261	2722.5
488.730717557487	2723.69995117188
489.463301005397	2741.16674804688
490.195789916709	2744.5
490.928184321792	2742.89990234375
491.660484250967	2747.69995117188
492.392689734594	2754.36669921875
493.124800802986	2753.33325195313
493.856817486452	2754.46655273438
494.58873981531	2763.16674804688
495.320567819823	2757.2333984375
496.052301530289	2751.36669921875
496.783940976952	2766.96655273438
497.515486190092	2775.80004882813
498.246937199921	2779.80004882813
498.978294036689	2786.89990234375
499.709556730602	2779.60009765625
500.440725311885	2790.96655273438
501.171799810713	2795.30004882813
501.902780257284	2789.69995117188
502.633666681754	2803.30004882813
503.364459114302	2844.39990234375
504.095157585053	2850.89990234375
504.825762124168	2871
505.556272761754	2875.36669921875
506.286689527934	2911.36669921875
507.017012452811	2931.63330078125
507.747241566469	2979.96655273438
508.477376898986	3013.89990234375
509.207418480438	3037.69995117188
509.937366340876	3088.13330078125
510.667220510335	3156.53344726563
511.396981018857	3236.06665039063
512.126647896458	3290.30004882813
512.856221173163	3402.63330078125
513.585700878942	3518.56665039063
514.315087043803	3667.93334960938
515.044379697715	3808.56665039063
515.773578870639	4048.53344726563
516.502684592527	4269.60009765625
517.231696893324	4569.16650390625
517.960615802948	4960.66650390625
518.689441351322	5299.60009765625
519.418173568352	5729.36669921875
520.146812483938	6077.89990234375
520.875358127946	6446.83349609375
521.603810530268	6617.7666015625
522.332169720741	6703.06689453125
523.060435729237	6616.2998046875
523.788608585567	6410.63330078125
524.516688319583	6178.2333984375
525.244674961073	5841.7001953125
525.97256853986	5569.2998046875
526.700369085727	5309.56689453125
527.428076628453	5078.06689453125
528.155691197806	4851.06689453125
528.88321282354	4644.33349609375
529.610641535404	4474.39990234375
530.337977363139	4352.2333984375
531.065220336448	4226.60009765625
531.792370485059	4077.83325195313
532.51942783867	3986.19995117188
533.246392426952	3893
533.973264279613	3807.19995117188
534.700043426288	3756.33325195313
535.426729896655	3697.16674804688
536.153323720336	3653.30004882813
536.879824926969	3599.36669921875
537.606233546188	3559.7333984375
538.332549607593	3537.80004882813
539.058773140773	3489.69995117188
539.784904175324	3476.89990234375
540.510942740812	3435.16674804688
541.236888866812	3415.83325195313
541.962742582867	3412.43334960938
542.688503918518	3380.53344726563
543.414172903305	3351.66674804688
544.139749566731	3355.83325195313
544.865233938318	3336.06665039063
545.59062604755	3337.60009765625
546.315925923922	3332.83325195313
547.041133596897	3313.2666015625
547.766249095948	3302.30004882813
548.491272450518	3306.89990234375
549.216203690043	3288.96655273438
549.941042843959	3299.66674804688
550.665789941684	3320.7333984375
551.390445012612	3321.03344726563
552.115008086147	3319.10009765625
552.839479191678	3326.10009765625
553.563858358566	3333.86669921875
554.288145616178	3308.33325195313
555.012340993857	3315.80004882813
555.736444520946	3317.69995117188
556.460456226776	3326.19995117188
557.184376140661	3337.7666015625
557.908204291912	3355.36669921875
558.63194070981	3370.89990234375
559.355585423641	3368.7666015625
560.079138462681	3375.53344726563
560.802599856191	3415.16674804688
561.525969633418	3407.53344726563
562.249247823596	3451.33325195313
562.972434455954	3443.83325195313
563.695529559719	3452.7333984375
564.418533164078	3480.2333984375
565.14144529824	3491.06665039063
565.864265991379	3500.56665039063
566.586995272669	3522.7333984375
567.309633171277	3509.30004882813
568.032179716338	3498.66674804688
568.754634937001	3484.16674804688
569.476998862388	3463.93334960938
570.19927152162	3436.56665039063
570.921452943799	3386.93334960938
571.643543158016	3346.7333984375
572.36554219336	3347.5
573.087450078895	3337.89990234375
573.809266843695	3334.43334960938
574.530992516797	3311.63330078125
575.252627127239	3321.60009765625
575.974170704067	3304.03344726563
576.695623276275	3313.5
577.416984872882	3318
578.138255522875	3305.06665039063
578.859435255253	3312
579.580524098969	3305.80004882813
580.301522082995	3336.16674804688
581.022429236289	3330.66674804688
581.743245587771	3333.30004882813
582.463971166388	3342.89990234375
583.184606001047	3362.56665039063
583.905150120664	3341.39990234375
584.625603554127	3353.30004882813
585.34596633033	3370.56665039063
586.066238478129	3383.53344726563
586.786420026421	3373.7333984375
587.506511004016	3400.2666015625
588.226511439786	3383.7666015625
588.946421362547	3409.39990234375
589.666240801135	3417.30004882813
590.385969784333	3425.2333984375
591.105608340966	3426.13330078125
591.825156499789	3421.89990234375
592.544614289615	3414.89990234375
593.263981739181	3448.06665039063
593.983258877254	3435.2333984375
594.702445732576	3418.43334960938
595.421542333874	3422.7333984375
596.140548709874	3378.30004882813
596.859464889292	3340.19995117188
597.578290900819	3299.46655273438
598.297026773147	3276.06665039063
599.01567253495	3239.2666015625
599.734228214907	3198.30004882813
600.452693841658	3169.83325195313
601.171069443876	3133.7333984375
601.889355050169	3110.43334960938
602.607550689164	3086.46655273438
603.325656389494	3069.5
604.043672179739	3056.2666015625
604.761598088507	3051.10009765625
605.479434144369	3040.43334960938
606.197180375904	3040.19995117188
606.914836811665	3023.96655273438
607.632403480208	3021.2666015625
608.349880410053	3030.2666015625
609.067267629757	3022.33325195313
609.784565167799	3025.30004882813
610.50177305272	3029.7333984375
611.218891312991	3019.13330078125
611.935919977112	3031.89990234375
612.652859073553	3037.10009765625
613.369708630773	3026.5
614.086468677222	3027.7666015625
614.803139241348	3030.16674804688
615.519720351572	3021.03344726563
616.236212036331	3034.7666015625
616.952614324014	3051.46655273438
617.668927243039	3039.89990234375
618.385150821779	3050.06665039063
619.101285088619	3044.39990234375
619.817330071927	3034.63330078125
620.53328580005	3042.7333984375
621.249152301349	3022.06665039063
621.964929604144	3026
622.680617736767	3025.53344726563
623.396216727521	3010.66674804688
624.111726604722	3032.93334960938
624.827147396658	3020.30004882813
625.542479131611	3022.46655273438
626.257721837851	3013.80004882813
626.972875543643	2988.7333984375
627.687940277219	2987.7333984375
628.40291606684	2983.10009765625
629.117802940721	2981.56665039063
629.832600927097	2964.53344726563
630.547310054154	2936.69995117188
631.261930350103	2964
631.976461843122	2933.13330078125
632.690904561388	2941.43334960938
633.405258533073	2913.56665039063
634.119523786327	2913.2666015625
634.833700349299	2889.56665039063
635.547788250108	2865.56665039063
636.261787516889	2891.36669921875
636.975698177757	2853.60009765625
637.689520260806	2853.43334960938
638.403253794135	2844.7666015625
639.116898805813	2823.56665039063
639.830455323923	2801.30004882813
640.543923376526	2794.46655273438
641.257302991654	2781.2666015625
641.97059419737	2764.03344726563
642.683797021684	2740.5
643.396911492625	2729.89990234375
644.109937638189	2731.16674804688
644.822875486383	2703.5
645.535725065189	2682.5
646.24848640259	2688.53344726563
646.961159526541	2672.96655273438
647.673744465009	2662.89990234375
648.386241245922	2645.63330078125
649.098649897237	2649.53344726563
649.810970446856	2657.19995117188
650.523202922707	2651.19995117188
651.235347352688	2631.66674804688
651.947403764692	2637.63330078125
652.6593721866	2627.30004882813
653.37125264629	2635
654.083045171609	2631.7666015625
654.79474979043	2638
655.506366530575	2629.03344726563
656.217895419889	2609.96655273438
656.929336486172	2616.53344726563
657.640689757255	2612.33325195313
658.351955260922	2612.03344726563
659.063133024971	2612.06665039063
659.774223077175	2616.80004882813
660.485225445308	2614.2333984375
661.196140157123	2609.96655273438
661.906967240365	2618.16674804688
662.617706722782	2618.7333984375
663.328358632091	2624.10009765625
664.038922996016	2629.7666015625
664.749399842249	2631.13330078125
665.459789198507	2633
666.170091092458	2639.36669921875
666.880305551784	2640.86669921875
667.590432604155	2647.7333984375
668.300472277216	2656.16674804688
669.01042459862	2654.03344726563
669.720289595993	2653.69995117188
670.430067296964	2656.86669921875
671.139757729146	2654.66674804688
671.849360920142	2642.69995117188
672.558876897549	2636.69995117188
673.268305688942	2651.06665039063
673.977647321902	2643.60009765625
674.686901823982	2645.83325195313
675.396069222745	2648.06665039063
676.105149545725	2632.7666015625
676.81414282046	2629.2666015625
677.523049074465	2627.56665039063
678.231868335251	2625.53344726563
678.940600630328	2615.39990234375
679.649245987172	2626.69995117188
680.35780443329	2615.5
681.066275996125	2615.83325195313
681.77466070315	2626.86669921875
682.482958581809	2617.2333984375
683.191169659556	2617.83325195313
683.899293963803	2618.03344726563
684.60733152198	2606.86669921875
685.315282361489	2600.36669921875
686.023146509742	2601.2333984375
686.730923994122	2611.19995117188
687.438614841998	2616.10009765625
688.146219080748	2614.63330078125
688.853736737737	2612.13330078125
689.561167840308	2623.16674804688
690.268512415792	2624.03344726563
690.975770491533	2628.33325195313
691.682942094835	2638.7333984375
692.390027253004	2648.96655273438
693.097025993363	2638.7333984375
693.803938343168	2641.7666015625
694.510764329722	2655.43334960938
695.217503980276	2672.36669921875
695.9241573221	2681.56665039063
696.63072438243	2680.16674804688
697.337205188513	2699.63330078125
698.043599767579	2688.56665039063
698.749908146834	2697.86669921875
699.456130353494	2706.63330078125
700.162266414748	2710.19995117188
700.868316357798	2692.86669921875
701.574280209806	2701.86669921875
702.280157997948	2693.19995117188
702.985949749382	2704.93334960938
703.691655491252	2682.56665039063
704.397275250694	2675.66674804688
705.102809054837	2681.80004882813
705.808256930795	2674.53344726563
706.513618905686	2668.13330078125
707.218895006592	2659.36669921875
707.924085260618	2649.86669921875
708.629189694824	2652.5
709.334208336292	2648.86669921875
710.039141212057	2638.89990234375
710.743988349195	2641.89990234375
711.448749774726	2634.5
712.153425515681	2644
712.858015599075	2639.56665039063
713.562520051922	2636.53344726563
714.266938901217	2632.2666015625
714.971272173936	2651.39990234375
715.675519897077	2655.2666015625
716.379682097595	2678.30004882813
717.083758802453	2668.66674804688
717.787750038595	2669.89990234375
718.491655832963	2676.46655273438
719.195476212478	2691.66674804688
719.899211204065	2699
720.602860834625	2678.96655273438
721.306425131073	2702.03344726563
722.009904120281	2703
722.713297829139	2703.56665039063
723.416606284497	2693.56665039063
724.119829513234	2691.89990234375
724.822967542194	2703.53344726563
725.526020398215	2701.66674804688
726.228988108123	2710.7666015625
726.931870698739	2718.16674804688
727.63466819687	2725.89990234375
728.337380629327	2731.36669921875
729.040008022882	2732
729.742550404337	2741.63330078125
730.445007800446	2755.80004882813
731.147380237972	2759.93334960938
731.84966774367	2760.7333984375
732.551870344277	2757.33325195313
733.253988066531	2792.56665039063
733.956020937138	2795.80004882813
734.65796898283	2799.16674804688
735.359832230293	2815.39990234375
736.061610706225	2811.93334960938
736.763304437305	2834.60009765625
737.464913450207	2823
738.166437771599	2838.66674804688
738.867877428125	2848.5
739.569232446433	2861.06665039063
740.270502853152	2881.5
740.971688674921	2875.63330078125
741.672789938327	2875.7333984375
742.373806669988	2915.33325195313
743.074738896511	2912.13330078125
743.775586644459	2917.46655273438
744.476349940422	2935.2333984375
745.17702881095	2944.03344726563
745.877623282621	2958.46655273438
746.578133381957	2949.56665039063
747.278559135505	2975.89990234375
747.978900569793	2960.7666015625
748.679157711339	2964.03344726563
749.379330586641	2956.10009765625
750.0794192222	2961.5
750.779423644508	2956.46655273438
751.479343880037	2948.46655273438
752.179179955261	2941.93334960938
752.878931896634	2925.66674804688
753.578599730608	2936.86669921875
754.278183483618	2910.89990234375
754.977683182097	2916.19995117188
755.677098852465	2898.7666015625
756.376430521131	2889.53344726563
757.07567821449	2893.63330078125
757.774841958949	2887.10009765625
758.473921780873	2856.66674804688
759.172917706636	2830
759.871829762612	2828.36669921875
760.570657975148	2805.69995117188
761.269402370572	2792.36669921875
761.96806297524	2776.7666015625
762.66663981546	2770.83325195313
763.365132917561	2749.60009765625
764.063542307824	2717.06665039063
764.761868012567	2705.13330078125
765.460110058069	2707.30004882813
766.158268470599	2695.13330078125
766.856343276424	2686.5
767.55433450181	2691.7666015625
768.252242172994	2689.06665039063
768.950066316215	2694.69995117188
769.64780695771	2709.30004882813
770.345464123687	2713.69995117188
771.043037840361	2722.63330078125
771.740528133929	2737.66674804688
772.437935030586	2753.7666015625
773.1352585565	2761.80004882813
773.832498737855	2784.83325195313
774.529655600803	2787.30004882813
775.226729171507	2799.5
775.923719476093	2803.13330078125
776.62062654071	2810.56665039063
777.317450391468	2809.33325195313
778.014191054486	2803.66674804688
778.710848555868	2792.33325195313
779.407422921714	2787.93334960938
780.103914178108	2782.89990234375
780.800322351114	2777.96655273438
781.496647466815	2755.63330078125
782.192889551254	2746.30004882813
782.889048630491	2752.5
783.585124730549	2723.53344726563
784.281117877468	2718.39990234375
784.977028097273	2718.60009765625
785.672855415956	2696.19995117188
786.368599859532	2679.60009765625
787.064261453981	2672.86669921875
787.759840225299	2659.5
788.455336199433	2652.2666015625
789.150749402372	2641.10009765625
789.84607986005	2636.36669921875
790.541327598425	2616.60009765625
791.236492643427	2614.16674804688
791.931575020975	2613.7666015625
792.62657475699	2603.66674804688
793.321491877375	2595.63330078125
794.016326408036	2604.63330078125
794.711078374848	2574.83325195313
795.405747803693	2583.03344726563
796.100334720443	2596.46655273438
796.794839150954	2591.30004882813
797.489261121072	2588.39990234375
798.183600656654	2581.16674804688
798.877857783511	2584.56665039063
799.57203252748	2578.10009765625
800.266124914366	2589.93334960938
800.960134969973	2595.86669921875
801.654062720095	2608.96655273438
802.347908190512	2592.46655273438
803.041671407007	2600.93334960938
803.735352395342	2591.39990234375
804.428951181284	2608.53344726563
805.12246779056	2613.39990234375
805.815902248922	2611.66674804688
806.509254582093	2613.66674804688
807.202524815801	2607.83325195313
807.895712975749	2616.2666015625
808.58881908764	2624.19995117188
809.281843177157	2636.56665039063
809.974785270003	2630.7333984375
810.667645391826	2636.60009765625
811.360423568309	2649.19995117188
812.053119825096	2643.19995117188
812.745734187831	2647.86669921875
813.438266682161	2649.5
814.130717333705	2658.46655273438
814.823086168076	2667.93334960938
815.515373210889	2648.10009765625
816.207578487748	2661.86669921875
816.899702024235	2650.86669921875
817.591743845928	2648.46655273438
818.283703978398	2626.80004882813
818.975582447225	2652.03344726563
819.667379277938	2623.66674804688
820.35909449609	2630
821.050728127216	2628.36669921875
821.742280196848	2608.33325195313
822.433750730493	2599.66674804688
823.125139753662	2580.10009765625
823.816447291855	2583.56665039063
824.507673370549	2563.30004882813
825.198818015231	2561.16674804688
825.889881251374	2556.93334960938
826.580863104442	2547.69995117188
827.271763599872	2525.7666015625
827.962582763119	2534.2333984375
828.653320619618	2514.2666015625
829.343977194791	2511.86669921875
830.034552514045	2505.83325195313
830.72504660279	2506.53344726563
831.415459486432	2508.39990234375
832.105791190354	2507.16674804688
832.79604173993	2500.53344726563
833.486211160532	2485.46655273438
834.17629947752	2486.5
834.866306716248	2486.83325195313
835.556232902058	2482.46655273438
836.246078060281	2476.80004882813
836.935842216239	2477.33325195313
837.625525395254	2475.39990234375
838.315127622627	2474.89990234375
839.004648923652	2480
839.694089323628	2472.7666015625
840.383448847822	2475.89990234375
841.072727521511	2454.86669921875
841.761925369946	2465.80004882813
842.451042418394	2468.56665039063
843.140078692075	2467.16674804688
843.829034216243	2464.60009765625
844.517909016119	2471.7666015625
845.206703116904	2469.2333984375
845.895416543824	2460.63330078125
846.584049322062	2467.13330078125
847.272601476817	2465.80004882813
847.961073033249	2472.80004882813
848.649464016547	2461.63330078125
849.337774451864	2458.63330078125
850.026004364355	2456.7333984375
850.714153779165	2452.7666015625
851.402222721422	2461.7333984375
852.090211216251	2466.56665039063
852.778119288776	2458.86669921875
853.4659469641	2449.86669921875
854.153694267314	2449.16674804688
854.841361223513	2451.60009765625
855.528947857783	2447.46655273438
856.216454195189	2449.03344726563
856.903880260794	2458.13330078125
857.591226079641	2443.69995117188
858.27849167679	2451.2666015625
858.965677077272	2450.33325195313
859.652782306111	2452.16674804688
860.339807388328	2450.46655273438
861.026752348915	2453.13330078125
861.713617212895	2441.53344726563
862.400402005248	2449.56665039063
863.087106750952	2447.36669921875
863.773731474988	2446.83325195313
864.460276202314	2443.30004882813
865.146740957882	2446.39990234375
865.833125766649	2442.39990234375
866.519430653541	2434.89990234375
867.205655643482	2433.66674804688
867.891800761413	2445.89990234375
868.577866032225	2444.83325195313
869.263851480817	2441.43334960938
869.949757132104	2428.7333984375
870.635583010948	2439.30004882813
871.321329142234	2428.93334960938
872.00699555082	2427.2333984375
872.692582261571	2437.89990234375
873.37808929933	2431.2333984375
874.063516688943	2430.56665039063
874.748864455231	2439.93334960938
875.434132623022	2434.16674804688
876.119321217122	2435.2333984375
876.80443026235	2423.30004882813
877.489459783479	2436.36669921875
878.174409805313	2427.30004882813
878.859280352625	2424.2666015625
879.544071450178	2423.30004882813
880.228783122741	2421.16674804688
880.913415395058	2419.96655273438
881.597968291876	2422.96655273438
882.282441837917	2429.53344726563
882.966836057924	2428.2666015625
883.651150976588	2422.83325195313
884.335386618638	2439.2333984375
885.019543008762	2427.7666015625
885.703620171653	2427.30004882813
886.387618131987	2429.66674804688
887.071536914444	2443
887.755376543681	2428.2333984375
888.439137044354	2429.86669921875
889.122818441092	2421
889.806420758563	2425.80004882813
890.489944021374	2427.83325195313
891.17338825415	2434.7666015625
891.856753481496	2438.06665039063
892.540039728018	2434.60009765625
893.223247018304	2427.60009765625
893.906375376951	2429.46655273438
894.589424828519	2435.53344726563
895.272395397583	2434.13330078125
895.9552871087	2428.56665039063
896.638099986421	2435.7666015625
897.32083405528	2414.89990234375
898.003489339815	2426.13330078125
898.686065864547	2431.7333984375
899.368563653989	2423.80004882813
900.05098273265	2435.63330078125
900.73332312502	2420.69995117188
901.415584855594	2434.2333984375
902.09776794885	2420.69995117188
902.779872429265	2423.83325195313
903.461898321282	2419.2333984375
904.143845649382	2430.46655273438
904.825714437982	2428.89990234375
905.507504711537	2421.7666015625
906.189216494465	2434.93334960938
906.870849811185	2424.10009765625
907.55240468612	2414
908.23388114366	2426.13330078125
908.915279208196	2422.46655273438
909.596598904118	2433.96655273438
910.277840255801	2417.39990234375
910.959003287608	2423.63330078125
911.640088023892	2418.89990234375
912.32109448903	2423.39990234375
913.002022707327	2421.96655273438
913.682872703143	2437.2333984375
914.363644500786	2424.06665039063
915.044338124572	2418.96655273438
915.724953598816	2434.2666015625
916.405490947812	2429.06665039063
917.08595019585	2424.5
917.766331367211	2431.06665039063
918.446634486172	2430.7666015625
919.126859576979	2418.39990234375
919.807006663897	2415.56665039063
920.487075771186	2441.33325195313
921.167066923067	2432.7333984375
921.846980143778	2424.7666015625
922.526815457533	2426.30004882813
923.206572888542	2440.30004882813
923.886252461025	2444.69995117188
924.565854199158	2434.80004882813
925.245378127137	2436
925.924824269132	2445.66674804688
926.604192649339	2449.10009765625
927.28348329188	2449.80004882813
927.962696220933	2443.43334960938
928.641831460637	2456.83325195313
929.320889035124	2462.2666015625
929.999868968515	2450.7333984375
930.678771284941	2466.60009765625
931.357596008509	2466.39990234375
932.036343163312	2477.89990234375
932.715012773449	2489.63330078125
933.393604863005	2493.66674804688
934.072119456057	2507.83325195313
934.750556576661	2516.06665039063
935.428916248893	2527.06665039063
936.107198496784	2537.53344726563
936.785403344392	2531.30004882813
937.463530815739	2546.16674804688
938.141580934859	2546.03344726563
938.819553725761	2558.80004882813
939.497449212455	2574.93334960938
940.175267418943	2581.63330078125
940.853008369217	2597.16674804688
941.530672087252	2596.89990234375
942.208258597034	2611.2333984375
942.88576792251	2619.06665039063
943.563200087657	2625.89990234375
944.240555116409	2630.7333984375
944.917833032714	2634.33325195313
945.595033860499	2634.69995117188
946.2721576237	2624.36669921875
946.949204346208	2622.39990234375
947.626174051953	2626.53344726563
948.30306676482	2644.16674804688
948.979882508703	2619.33325195313
949.656621307485	2621.33325195313
950.333283185039	2625.10009765625
951.009868165216	2626.43334960938
951.686376271891	2607.19995117188
952.362807528901	2616.63330078125
953.03916196009	2618.19995117188
953.715439589288	2613.06665039063
954.391640440314	2633.46655273438
955.067764536986	2621.43334960938
955.74381190311	2627.96655273438
956.419782562481	2619.19995117188
957.095676538886	2616.83325195313
957.771493856112	2619.7333984375
958.447234537921	2619.46655273438
959.122898608092	2631.19995117188
959.798486090369	2617.10009765625
960.473997008503	2612
961.149431386226	2638.60009765625
961.824789247285	2624.2666015625
962.500070615388	2640.2666015625
963.175275514248	2623.2666015625
963.850403967579	2637
964.525455999079	2632.60009765625
965.200431632428	2648.19995117188
965.875330891311	2634.89990234375
966.550153799403	2633.03344726563
967.224900380363	2652.13330078125
967.899570657855	2642.89990234375
968.574164655517	2644.36669921875
969.24868239699	2649.36669921875
969.923123905908	2635.2333984375
970.597489205892	2642.30004882813
971.27177832055	2645.2333984375
971.945991273505	2640.06665039063
972.620128088335	2631.56665039063
973.29418878864	2644.60009765625
973.968173398004	2650
974.642081939996	2651.7333984375
975.315914438171	2647.89990234375
975.989670916094	2657.53344726563
976.663351397316	2648.53344726563
977.336955905378	2641.13330078125
978.010484463804	2653.66674804688
978.683937096118	2642.43334960938
979.357313825837	2642.30004882813
980.030614676472	2650.30004882813
980.703839671514	2659.7666015625
981.376988834455	2644.56665039063
982.050062188785	2645.63330078125
982.723059757969	2630.33325195313
983.395981565477	2637.2666015625
984.068827634767	2640.93334960938
984.741597989282	2627.96655273438
985.414292652472	2643.43334960938
986.086911647764	2627.53344726563
986.759454998581	2632.96655273438
987.431922728346	2629
988.10431486046	2610.39990234375
988.776631418332	2611.2333984375
989.448872425341	2597.86669921875
990.121037904883	2598.19995117188
990.793127880332	2594.60009765625
991.465142375048	2576.7333984375
992.137081412394	2562.03344726563
992.808945015717	2564.10009765625
993.48073320837	2555.69995117188
994.152446013679	2538.2333984375
994.824083454977	2536.2666015625
995.495645555577	2524.16674804688
996.167132338785	2515.96655273438
996.838543827912	2496.80004882813
997.509880046252	2506.7666015625
998.181141017087	2501.10009765625
998.852326763699	2503.2666015625
999.523437309342	2497
1000.1944726773	2493.2333984375
1000.86543289081	2493.7666015625
1001.53631797312	2487
1002.20712794747	2482.2333984375
1002.87786283709	2478.2666015625
1003.5485226652	2473.80004882813
1004.21910745501	2460.2333984375
1004.88961722973	2468.66674804688
1005.56005201255	2463.03344726563
1006.23041182666	2454.36669921875
1006.90069669524	2451.86669921875
1007.57090664147	2468.56665039063
1008.24104168851	2453
1008.9111018595	2443.60009765625
1009.58108717761	2446.83325195313
1010.25099766598	2424.89990234375
1010.92083334773	2445.56665039063
1011.59059424598	2431.69995117188
1012.26028038385	2438.69995117188
1012.92989178446	2438.46655273438
1013.59942847091	2433.86669921875
1014.26889046627	2435.36669921875
1014.93827779364	2416.2666015625
1015.60759047608	2432.30004882813
1016.27682853668	2425.93334960938
1016.94599199848	2421.83325195313
1017.61508088455	2426.19995117188
1018.28409521791	2421.93334960938
1018.95303502162	2425.66674804688
1019.62190031868	2420.03344726563
1020.29069113213	2428.46655273438
1020.95940748498	2414.13330078125
1021.62804940023	2415.06665039063
1022.29661690087	2405.60009765625
1022.96511000988	2412.63330078125
1023.63352875027	2406.53344726563
1024.30187314498	2404.30004882813
1024.97014321699	2404.53344726563
1025.63833898925	2411.7666015625
1026.3064604847	2392.10009765625
1026.9745077263	2409.63330078125
1027.64248073695	2397.66674804688
1028.3103795396	2399.66674804688
1028.97820415717	2410.16674804688
1029.64595461253	2400.86669921875
1030.31363092861	2401.56665039063
1030.9812331283	2388.10009765625
1031.64876123448	2399.53344726563
1032.31621527001	2394.60009765625
1032.98359525779	2397.39990234375
1033.65090122065	2396.10009765625
1034.31813318144	2399.39990234375
1034.98529116303	2395.56665039063
1035.65237518824	2394.2333984375
1036.3193852799	2398.5
1036.98632146083	2381.69995117188
1037.65318375384	2394.89990234375
1038.31997218173	2383.96655273438
1038.98668676731	2382.60009765625
1039.65332753335	2388.46655273438
1040.31989450265	2402.83325195313
1040.98638769797	2374.30004882813
1041.65280714207	2384.10009765625
1042.31915285773	2386.89990234375
1042.98542486766	2388.69995117188
1043.65162319464	2378.16674804688
1044.31774786138	2390.13330078125
1044.98379889061	2381.56665039063
1045.64977630505	2376.19995117188
1046.3156801274	2382.2333984375
1046.98151038038	2377.7333984375
1047.64726708667	2378.53344726563
1048.31295026895	2385.03344726563
1048.97855994991	2376.83325195313
1049.64409615221	2385.80004882813
1050.30955889852	2383
1050.97494821149	2383.53344726563
1051.64026411378	2370.16674804688
1052.30550662801	2375.7333984375
1052.9706757768	2379.7666015625
1053.6357715828	2371.7333984375
1054.30079406862	2367.7666015625
1054.96574325686	2392.16674804688
1055.63061917012	2380.43334960938
1056.29542183099	2381.2666015625
1056.96015126205	2379.63330078125
1057.62480748589	2379.60009765625
1058.28939052507	2389.10009765625
1058.95390040214	2378.5
1059.61833713967	2373.16674804688
1060.28270076019	2377.80004882813
1060.94699128624	2387.60009765625
1061.61120874035	2374.13330078125
1062.27535314506	2383.69995117188
1062.93942452285	2382.43334960938
1063.60342289624	2381.36669921875
1064.26734828774	2365.5
1064.93120071982	2384.30004882813
1065.59498021498	2383.10009765625
1066.25868679568	2378.19995117188
1066.92232048439	2374.13330078125
1067.58588130357	2389.39990234375
1068.24936927567	2385
1068.91278442313	2383.16674804688
1069.5761267684	2376.43334960938
1070.23939633389	2396.63330078125
1070.90259314204	2382.69995117188
1071.56571721524	2378.7333984375
1072.22876857591	2390.53344726563
1072.89174724643	2385.03344726563
1073.55465324921	2402.66674804688
1074.21748660662	2389.43334960938
1074.88024734103	2385.89990234375
1075.54293547481	2400.06665039063
1076.20555103032	2385.30004882813
1076.86809402991	2382.63330078125
1077.53056449592	2393.16674804688
1078.19296245068	2392.60009765625
1078.85528791653	2392.13330078125
1079.51754091578	2393.96655273438
1080.17972147075	2387.86669921875
1080.84182960373	2390.80004882813
1081.50386533702	2390.5
1082.16582869292	2390.13330078125
1082.82771969371	2392.06665039063
1083.48953836164	2388.03344726563
1084.151284719	2379.80004882813
1084.81295878805	2387.7333984375
1085.47456059102	2396.7666015625
1086.13609015016	2398.86669921875
1086.79754748771	2390.83325195313
1087.45893262589	2402.06665039063
1088.12024558693	2390.66674804688
1088.78148639303	2396.93334960938
1089.4426550664	2404.19995117188
1090.10375162923	2392.2666015625
1090.76477610373	2404.03344726563
1091.42572851205	2387.19995117188
1092.08660887639	2406.06665039063
1092.74741721889	2404.83325195313
1093.40815356173	2402.69995117188
1094.06881792706	2394.7333984375
1094.72941033701	2411.60009765625
1095.38993081372	2392.43334960938
1096.05037937931	2404.83325195313
1096.71075605592	2400.63330078125
1097.37106086565	2403.03344726563
1098.03129383061	2408.46655273438
1098.69145497288	2405.03344726563
1099.35154431456	2404.13330078125
1100.01156187774	2409.96655273438
1100.6715076845	2391.83325195313
1101.33138175687	2406.56665039063
