-62.8802656760145	1571.36669921875
-62.0712801655087	1571.33337402344
-61.2624144408879	1571
-60.4536684613764	1570.90002441406
-59.6450421861946	1570.69995117188
-58.8365355746153	1570.53332519531
-58.0281485858832	1570.30004882813
-57.2198811793115	1570.06665039063
-56.4117333141813	1572.13330078125
-55.6037049498382	1571.23327636719
-54.7957960456036	1569.66662597656
-53.9880065608474	1571.09997558594
-53.1803364549354	1570.69995117188
-52.3727856872778	1571.63330078125
-51.5653542172727	1570.53332519531
-50.7580420043586	1571.40002441406
-49.9508490079698	1570.59997558594
-49.143775187589	1570.40002441406
-48.3368205026788	1570.26672363281
-47.5299849127581	1570.66662597656
-46.7232683773338	1570.40002441406
-45.9166708559529	1570.46667480469
-45.1101923081504	1571.46667480469
-44.3038326935136	1571.86669921875
-43.4975919716136	1572.09997558594
-42.6914701020778	1572.16662597656
-41.8854670445174	1571.56665039063
-41.07958275858	1571.53332519531
-40.2738172039169	1572.09997558594
-39.4681703402036	1571.23327636719
-38.6626421271476	1569.33337402344
-37.8572325244484	1570.26672363281
-37.0519414918416	1572.36669921875
-36.2467689890625	1571.09997558594
-35.441714975895	1570.80004882813
-34.6367794121022	1570.5
-33.8319622574879	1570.36669921875
-33.0272634718794	1570.26672363281
-32.2226830151083	1570.09997558594
-31.4182208470059	1570.73327636719
-30.6138769274635	1571.83337402344
-29.8096512163686	1570.90002441406
-29.0055436736122	1570.90002441406
-28.2015542591217	1571.40002441406
-27.397682932832	1570.33337402344
-26.5939296547063	1571.16662597656
-25.7902943847235	1571.56665039063
-24.9867770828543	1570.5
-24.1833777091256	1571.43334960938
-23.3800962235519	1571.03332519531
-22.5769325861837	1572.19995117188
-21.7738867570794	1571.46667480469
-20.9709586963133	1570.96667480469
-20.1681483639916	1571.5
-19.365455720212	1571
-18.5628807251165	1570.26672363281
-17.7604233388427	1570.86669921875
-16.9580835215601	1572.76672363281
-16.1558612334539	1571.16662597656
-15.3537564347134	1571.13330078125
-14.5517690855595	1571.66662597656
-13.7498991462288	1571.43334960938
-12.94814657697	1570.69995117188
-12.1465113380514	1570.96667480469
-11.3449933897571	1569.69995117188
-10.543592692387	1570.73327636719
-9.74230920626065	1571.16662597656
-8.9411428917136	1572.16662597656
-8.14009370910902	1570.83337402344
-7.33916161880982	1570.19995117188
-6.53834658120667	1570.63330078125
-5.73764855670195	1570.09997558594
-4.9370675057178	1570.66662597656
-4.13660338870815	1571.36669921875
-3.33625616610644	1571.40002441406
-2.53602579839399	1571.63330078125
-1.73591224606778	1569.5
-0.93591546962846	1570.23327636719
-0.136035429612425	1571.26672363281
0.663727913452362	1573.83337402344
1.46337459899013	1583.19995117188
2.26290466644961	1599.03332519531
3.06231815521169	1598.96667480469
3.86161510468576	1581.83337402344
4.66079555422945	1573.40002441406
5.45985954321688	1570.56665039063
6.25880711096637	1571.36669921875
7.05763829681681	1570.66662597656
7.85635314006331	1570.93334960938
8.65495168000148	1572.23327636719
9.45343395589124	1570.93334960938
10.251800007001	1571.19995117188
11.0500498725555	1571.16662597656
11.848183591788	1568.96667480469
12.6462012038881	1569.76672363281
13.4441027480499	1571.33337402344
14.2418882634437	1570.40002441406
15.0395577892247	1570.66662597656
15.8371113645201	1571.03332519531
16.6345490284539	1570.06665039063
17.4318708201263	1570.66662597656
18.2290767786302	1571.40002441406
19.0261669430227	1572.09997558594
19.8231413523778	1570.5
20.6200000456976	1571.03332519531
21.4167430620288	1569.43334960938
22.2133704403548	1571.09997558594
23.0098822196713	1572.63330078125
23.8062784389426	1571
24.6025591371175	1572.06665039063
25.3987243531334	1571.23327636719
26.1947741259042	1570.13330078125
26.9907084943443	1571.40002441406
27.7865274973208	1571.66662597656
28.5822311737091	1570.76672363281
29.3778195623575	1571.69995117188
30.1732927021065	1570.76672363281
30.9686506317656	1571.83337402344
31.7638933901446	1571.53332519531
32.5590210160179	1571.96667480469
33.3540335481646	1572.26672363281
34.1489310253285	1572.09997558594
34.9437134862418	1570.30004882813
35.7383809696253	1571.5
36.5329335141808	1571.30004882813
37.3273711585903	1571.13330078125
38.1216939415287	1570.69995117188
38.9159019016394	1570.83337402344
39.7099950775626	1571.63330078125
40.5039735079151	1571.13330078125
41.2978372312983	1570.5
42.0915862862985	1571.80004882813
42.8852207114822	1571.59997558594
43.6787405454012	1571.19995117188
44.4721458265996	1571.13330078125
45.2654365935904	1570.80004882813
46.058612884867	1570.66662597656
46.8516747389399	1571.53332519531
47.6446221942481	1570.30004882813
48.4374552892714	1571.09997558594
49.2301740624383	1571.43334960938
50.0227785521661	1570.76672363281
50.8152687968608	1570.83337402344
51.6076448349091	1570.69995117188
52.3999067046866	1569.69995117188
53.1920544445376	1570.90002441406
53.9840880928151	1570.36669921875
54.7760076878371	1571.30004882813
55.567813267906	1571.93334960938
56.3595048713054	1571.76672363281
57.1510825363196	1569.93334960938
57.9425463012015	1572.59997558594
58.733896204193	1570.23327636719
59.5251322835168	1570.53332519531
60.3162545773685	1571.26672363281
61.1072631239722	1571.30004882813
61.8981579614694	1573.03332519531
62.6889391280379	1574.59997558594
63.4796066618127	1572.63330078125
64.2701606009215	1574.96667480469
65.0606009834849	1576.26672363281
65.8509278475725	1577.76672363281
66.6411412312945	1578.73327636719
67.4312411726863	1578.33337402344
68.221227709804	1581.43334960938
69.0111008806766	1585.56665039063
69.8008607233221	1587.83337402344
70.5905072757234	1591.03332519531
71.3800405758802	1592.33337402344
72.1694606617374	1598.83337402344
72.9587675712524	1602.69995117188
73.747961342356	1604.96667480469
74.5370420129716	1614.53332519531
75.3260096209917	1617.26672363281
76.1148642042977	1623.96667480469
76.9036058007681	1630.16662597656
77.6922344482463	1629.96667480469
78.4807501845685	1640.19995117188
79.2691530475681	1637.46667480469
80.0574430750156	1646.26672363281
80.845620304738	1649.59997558594
81.6336847744759	1650.46667480469
82.4216365220025	1657.26672363281
83.2094755850442	1652.76672363281
83.9972020013364	1662.13330078125
84.7848158085834	1662.26672363281
85.5723170444668	1660.40002441406
86.3597057466849	1661.19995117188
87.1469819528733	1658.66662597656
87.9341457006927	1661.53332519531
88.7211970277526	1665.03332519531
89.5081359716837	1665.16662597656
90.2949625700579	1662.33337402344
91.081676860484	1666.19995117188
91.8682788805079	1670.76672363281
92.6547686676808	1668.03332519531
93.4411462595307	1670.59997558594
94.2274116935869	1668.66662597656
95.0135650073277	1671.5
95.7996062382647	1670.80004882813
96.5855354238424	1673.63330078125
97.3713526015265	1672.36669921875
98.157057808752	1674.93334960938
98.9426510829309	1675.63330078125
99.7281324614842	1676.09997558594
100.513501981782	1678.19995117188
101.298759681221	1677
102.083905597144	1677.93334960938
102.868939766891	1677.09997558594
103.653862227798	1681.66662597656
104.438673017168	1681.23327636719
105.223372172302	1683.43334960938
106.007959730469	1684.76672363281
106.792435728938	1682.43334960938
107.576800204962	1684.76672363281
108.361053195763	1681.56665039063
109.145194738568	1684.09997558594
109.929224870558	1689.5
110.71314362894	1684.53332519531
111.496951050867	1682.53332519531
112.280647173509	1684.26672363281
113.064232033987	1685.03332519531
113.847705669429	1687.66662597656
114.631068116938	1684.56665039063
115.414319413616	1687.96667480469
116.197459596525	1689.03332519531
116.980488702734	1687.66662597656
117.76340676928	1691.09997558594
118.546213833194	1690.83337402344
119.328909931491	1689.63330078125
120.111495101165	1698.33337402344
120.893969379195	1695.30004882813
121.676332802552	1699.33337402344
122.458585408185	1697.83337402344
123.240727233033	1703.5
124.022758314001	1708.56665039063
124.804678688012	1705.40002441406
125.586488391943	1713.36669921875
126.368187462664	1719.90002441406
127.149775937045	1716.63330078125
127.931253851906	1716.90002441406
128.712621244105	1716.66662597656
129.493878150424	1724.56665039063
130.275024607679	1720.16662597656
131.05606065263	1720.06665039063
131.836986322054	1717.86669921875
132.617801652702	1723.43334960938
133.398506681303	1724.16662597656
134.179101444575	1730.63330078125
134.959585979225	1732.93334960938
135.739960321933	1734.73327636719
136.520224509383	1730.43334960938
137.30037857821	1739
138.080422565087	1739.93334960938
138.860356506612	1739.96667480469
139.640180439409	1746.03332519531
140.419894400069	1747
141.199498425174	1744.73327636719
141.978992551284	1744.76672363281
142.758376814962	1747.46667480469
143.537651252719	1750.09997558594
144.3168159011	1752.16662597656
145.095870796584	1751.09997558594
145.874815975682	1755.43334960938
146.653651474851	1757.59997558594
147.432377330548	1759.40002441406
148.210993579225	1765.23327636719
148.989500257303	1769.96667480469
149.767897401202	1776
150.546185047308	1772.93334960938
151.324363232007	1780.33337402344
152.102431991664	1780.19995117188
152.880391362628	1787.46667480469
153.658241381243	1781.83337402344
154.435982083826	1776.90002441406
155.213613506675	1777.56665039063
155.991135686104	1775.66662597656
156.768548658349	1773.80004882813
157.545852459702	1768.73327636719
158.323047126388	1766
159.100132694662	1761.06665039063
159.877109200719	1763.96667480469
160.653976680759	1762.13330078125
161.430735170968	1754.36669921875
162.207384707527	1758.09997558594
162.98392532658	1751.46667480469
163.760357064266	1747.93334960938
164.536679956709	1750.83337402344
165.312894040019	1753.16662597656
166.08899935029	1751.23327636719
166.86499592361	1747.73327636719
167.64088379603	1747.93334960938
168.416663003602	1747.59997558594
169.19233358237	1748.30004882813
169.967895568343	1752.09997558594
170.743348997518	1750.66662597656
171.518693905903	1747.69995117188
172.293930329461	1747.36669921875
173.06905830415	1747.43334960938
173.844077865923	1746.63330078125
174.618989050701	1747.76672363281
175.393791894402	1749.43334960938
176.168486432918	1752.86669921875
176.943072702149	1753.13330078125
177.717550737943	1758.5
178.491920576174	1764.06665039063
179.266182252671	1767
180.040335803267	1778.19995117188
180.814381263757	1777.5
181.58831866996	1776.5
182.362148057631	1780
183.135869462553	1773.36669921875
183.909482920467	1773.66662597656
184.682988467117	1770.40002441406
185.456386138212	1773.83337402344
186.22967596947	1770.16662597656
187.002857996574	1771.19995117188
187.775932255208	1771.43334960938
188.548898781025	1775.83337402344
189.32175760968	1774.23327636719
190.094508776801	1785.59997558594
190.867152318005	1789.73327636719
191.639688268901	1792.86669921875
192.412116665058	1789.06665039063
193.184437542076	1786.06665039063
193.9566509355	1776.46667480469
194.728756880869	1777.06665039063
195.500755413713	1771.13330078125
196.272646569558	1768.93334960938
197.044430383894	1765.53332519531
197.816106892204	1765
198.587676129964	1762
199.359138132634	1758.53332519531
200.130492935633	1761.90002441406
200.901740574413	1757.56665039063
201.672881084377	1750.90002441406
202.443914500921	1755.03332519531
203.214840859416	1755.23327636719
203.985660195246	1754.36669921875
204.756372543762	1759.36669921875
205.526977940299	1753.76672363281
206.297476420174	1755.06665039063
207.067868018711	1757.46667480469
207.838152771188	1759.5
208.608330712894	1760.26672363281
209.378401879107	1759.80004882813
210.148366305059	1758
210.918224025992	1760.46667480469
211.687975077139	1758.03332519531
212.457619493685	1760.69995117188
213.227157310848	1754.76672363281
213.996588563789	1756.23327636719
214.76591328768	1754.80004882813
215.535131517664	1749.56665039063
216.304243288882	1746.73327636719
217.073248636458	1750.23327636719
217.842147595492	1749.06665039063
218.610940201072	1748.03332519531
219.379626488284	1749
220.148206492193	1749.19995117188
220.91668024783	1743.19995117188
221.685047790247	1750.80004882813
222.453309154456	1747.13330078125
223.221464375454	1750.23327636719
223.989513488251	1746.19995117188
224.75745652781	1748.63330078125
225.525293529093	1741.40002441406
226.293024527053	1743.80004882813
227.060649556623	1751.06665039063
227.828168652717	1742.66662597656
228.595581850241	1741.53332519531
229.362889184086	1746
230.130090689128	1744.40002441406
230.89718640023	1743.23327636719
231.664176352239	1737.59997558594
232.431060579987	1745.69995117188
233.197839118289	1746.56665039063
233.964512001954	1737.26672363281
234.731079265774	1736.73327636719
235.497540944521	1736.56665039063
236.263897072963	1737.23327636719
237.030147685833	1736.63330078125
237.796292817881	1737
238.562332503806	1733.40002441406
239.328266778331	1732.76672363281
240.094095676137	1727.59997558594
240.859819231909	1731.76672363281
241.62543748029	1729.66662597656
242.390950455954	1727.56665039063
243.156358193514	1733.80004882813
243.921660727599	1730.53332519531
244.68685809281	1727.73327636719
245.451950323743	1728.19995117188
246.216937454966	1721.83337402344
246.981819521049	1733.66662597656
247.746596556546	1723.09997558594
248.511268595976	1724.13330078125
249.275835673871	1726.80004882813
250.04029782473	1733.09997558594
250.804655083059	1732.09997558594
251.568907483323	1723.66662597656
252.333055059988	1721.03332519531
253.097097847503	1726.33337402344
253.861035880304	1720.36669921875
254.62486919282	1719.40002441406
255.388597819456	1721.73327636719
256.152221794596	1723.40002441406
256.91574115264	1725.83337402344
257.679155927928	1720.19995117188
258.442466154831	1724.36669921875
259.205671867672	1724.36669921875
259.968773100793	1718.43334960938
260.731769888482	1720.63330078125
261.494662265052	1722.5
262.257450264777	1723.80004882813
263.020133921935	1723.40002441406
263.782713270754	1722.26672363281
264.545188345504	1720.23327636719
265.307559180386	1722.30004882813
266.069825809631	1719.36669921875
266.831988267425	1718.23327636719
267.594046587959	1715.03332519531
268.356000805395	1715.16662597656
269.117850953891	1715.03332519531
269.879597067602	1714.90002441406
270.641239180637	1715.53332519531
271.402777327131	1718.53332519531
272.164211541161	1715.46667480469
272.925541856831	1718.83337402344
273.686768308211	1716.56665039063
274.44789092936	1715.43334960938
275.208909754314	1718.69995117188
275.969824817121	1721.59997558594
276.730636151784	1726.33337402344
277.491343792312	1718.36669921875
278.251947772692	1716.13330078125
279.012448126904	1717.63330078125
279.77284488891	1718.5
280.533138092657	1719.33337402344
281.293327772081	1719.66662597656
282.053413961105	1718.69995117188
282.813396693626	1719.06665039063
283.573276003551	1717.76672363281
284.333051924748	1721.76672363281
285.092724491092	1721
285.852293736427	1722.5
286.611759694607	1716.36669921875
287.371122399433	1724.80004882813
288.13038188474	1723.43334960938
288.889538184304	1722.09997558594
289.648591331919	1717.5
290.407541361362	1721.03332519531
291.166388306376	1720.43334960938
291.925132200712	1725.30004882813
292.683773078096	1723.76672363281
293.44231097225	1724.06665039063
294.200745916861	1720.53332519531
294.959077945631	1722.96667480469
295.717307092225	1723.40002441406
296.475433390307	1722.69995117188
297.233456873527	1722.69995117188
297.991377575513	1724.5
298.749195529897	1721.83337402344
299.506910770276	1728.56665039063
300.264523330243	1730.13330078125
301.022033243374	1724.76672363281
301.779440543239	1728.76672363281
302.536745263392	1725.73327636719
303.29394743736	1735.93334960938
304.051047098689	1735.56665039063
304.808044280878	1733.66662597656
305.564939017422	1731.46667480469
306.321731341806	1735.90002441406
307.07842128751	1739.76672363281
307.835008887983	1734.30004882813
308.59149417667	1734.36669921875
309.347877187004	1737.5
310.104157952396	1732.59997558594
310.860336506259	1732.03332519531
311.616412881976	1728.40002441406
312.372387112933	1735.36669921875
313.128259232476	1734.40002441406
313.88402927397	1734.16662597656
314.639697270744	1736.19995117188
315.395263256123	1735.26672363281
316.150727263413	1735.13330078125
316.906089325921	1740.5
317.661349476911	1740.30004882813
318.416507749671	1738.86669921875
319.171564177441	1741.69995117188
319.926518793482	1737.63330078125
320.681371630998	1741.80004882813
321.436122723229	1739.66662597656
322.19077210336	1742.53332519531
322.945319804596	1738.83337402344
323.699765860095	1741.5
324.454110303027	1741.5
325.208353166543	1739.33337402344
325.962494483781	1740.40002441406
326.716534287853	1743.03332519531
327.470472611881	1742.36669921875
328.224309488948	1735
328.97804495215	1741.59997558594
329.73167903455	1740.40002441406
330.485211769199	1742.96667480469
331.238643189142	1744.23327636719
331.99197332741	1739.06665039063
332.745202217023	1741.13330078125
333.498329890974	1739.86669921875
334.251356382268	1744
335.00428172386	1748.36669921875
335.757105948733	1744.46667480469
336.509829089831	1745.83337402344
337.262451180083	1745.86669921875
338.01497225242	1748.23327636719
338.767392339755	1746.13330078125
339.519711474974	1748.46667480469
340.271929690979	1750.96667480469
341.024047020618	1747.40002441406
341.776063496779	1754.76672363281
342.527979152272	1754.43334960938
343.279794019952	1753.13330078125
344.031508132625	1752
344.783121523104	1753.46667480469
345.534634224173	1753.86669921875
346.286046268628	1756.36669921875
347.03735768921	1756.96667480469
347.788568518696	1752.16662597656
348.53967878981	1758.40002441406
349.29068853528	1756.96667480469
350.041597787827	1763.63330078125
350.79240658014	1761.66662597656
351.543114944923	1753.43334960938
352.293722914834	1760.43334960938
353.044230522551	1767.03332519531
353.794637800701	1767.19995117188
354.544944781933	1768.96667480469
355.295151498867	1772.90002441406
356.045257984108	1772.86669921875
356.795264270262	1772.96667480469
357.545170389901	1782.5
358.294976375607	1783.03332519531
359.044682259922	1781.69995117188
359.794288075399	1777.80004882813
360.54379385457	1785.40002441406
361.293199629947	1783.59997558594
362.04250543405	1795.23327636719
362.79171129935	1787.59997558594
363.540817258351	1795.69995117188
364.289823343495	1802.5
365.03872958725	1805
365.787536022048	1808.13330078125
366.536242680329	1811.13330078125
367.284849594499	1814.09997558594
368.033356796962	1823.93334960938
368.781764320094	1821.06665039063
369.530072196302	1832.93334960938
370.278280457919	1844.40002441406
371.026389137312	1853.16662597656
371.774398266814	1861.66662597656
372.522307878752	1874.43334960938
373.270118005429	1888.83337402344
374.017828679145	1897
374.765439932199	1924.83337402344
375.512951796856	1949.16662597656
376.260364305385	1982.13330078125
377.007677490008	2011.80004882813
377.754891382986	2049.13330078125
378.502006016533	2107.93334960938
379.249021422861	2175.69995117188
379.995937634157	2257.43334960938
380.742754682616	2356.96655273438
381.489472600403	2520.7333984375
382.236091419679	2822
382.982611172583	3455.93334960938
383.729031891253	4755
384.475353607811	6527.83349609375
385.221576354359	7491.43310546875
385.967700162992	6621
386.713725065802	4741.33349609375
387.459651094842	3265.30004882813
388.205478282181	2508.66674804688
388.951206659853	2190
389.696836259896	2067.33325195313
390.442367114332	1998.36669921875
391.18779925515	1977.19995117188
391.933132714366	1962.13330078125
392.678367523939	1952.06665039063
393.423503715858	1941.56665039063
394.168541322056	1941.76672363281
394.913480374495	1958.73327636719
395.658320905081	1965.93334960938
396.403062945756	1983.03332519531
397.147706528413	1997.33337402344
397.89225168494	2032.23327636719
398.636698447223	2062.53344726563
399.381046847131	2107.36669921875
400.125296916507	2148.96655273438
400.869448687208	2215.86669921875
401.613502191047	2277.96655273438
402.357457459854	2365.03344726563
403.101314525419	2484.39990234375
403.845073419553	2660.83325195313
404.588734174014	2878.33325195313
405.332296820579	3168.7666015625
406.075761390996	3593.7666015625
406.819127917025	4272.533203125
407.562396430365	5296.63330078125
408.305566962747	6641.06689453125
409.048639545884	7838.966796875
409.79161421145	8152.60009765625
410.534490991132	7237.10009765625
411.277269916601	5810.10009765625
412.019951019504	4472.966796875
412.762534331484	3561.33325195313
413.505019884163	3036.7666015625
414.247407709166	2706.2333984375
414.989697838098	2505.60009765625
415.731890302547	2359.36669921875
416.473985134093	2264.86669921875
417.215982364291	2203.7333984375
417.957882024722	2141.2666015625
418.699684146901	2112.39990234375
419.44138876237	2072.53344726563
420.182995902647	2041.09997558594
420.92450559923	2016.16662597656
421.665917883614	2008.63330078125
422.407232787286	1999.90002441406
423.1484503417	1989.63330078125
423.889570578319	1973.90002441406
424.630593528589	1968.36669921875
425.371519223938	1964.13330078125
426.112347695776	1956.23327636719
426.853078975517	1955.56665039063
427.593713094549	1937.90002441406
428.33425008426	1929.43334960938
429.074689976016	1933.09997558594
429.815032801174	1922.5
430.555278591075	1920.16662597656
431.295427377053	1927.56665039063
432.035479190425	1926.03332519531
432.775434062504	1933.33337402344
433.515292024581	1930.56665039063
434.255053107939	1942.66662597656
434.994717343853	1935.63330078125
435.734284763569	1932.43334960938
436.473755398347	1938.83337402344
437.213129279415	1953.56665039063
437.952406437988	1946.40002441406
438.691586905289	1957.16662597656
439.430670712505	1953.36669921875
440.169657890821	1953.59997558594
440.908548471419	1962.56665039063
441.647342485448	1971.66662597656
442.386039964063	1978.33337402344
443.124640938399	1986.96667480469
443.863145439578	1996.80004882813
444.601553498714	2007.59997558594
445.339865146909	2003
446.078080415243	2022.76672363281
446.816199334798	2022.93334960938
447.55422193663	2037.56665039063
448.292148251798	2052.89990234375
449.029978311342	2061.13330078125
449.767712146277	2077.30004882813
450.505349787637	2093
451.242891266397	2108.89990234375
451.980336613571	2123.80004882813
452.717685860128	2134.06665039063
453.454939037037	2136.43334960938
454.192096175247	2113.33325195313
454.929157305714	2103.46655273438
455.666122459351	2086.2666015625
456.402991667088	2064.83325195313
457.139764959817	2050.93334960938
457.87644236845	2040.46667480469
458.613023923856	2022.69995117188
459.349509656917	2017.63330078125
460.085899598469	2009.90002441406
460.822193779379	2004.13330078125
461.55839223047	1991.33337402344
462.294494982574	1989.90002441406
463.030502066492	1978.63330078125
463.766413513017	1971.56665039063
464.502229352947	1970.63330078125
465.237949617054	1956.16662597656
465.97357433608	1937.19995117188
466.709103540808	1930.09997558594
467.444537261952	1913.59997558594
468.179875530237	1901.66662597656
468.915118376397	1877.56665039063
469.650265831115	1863.46667480469
470.385317925091	1840.76672363281
471.120274689003	1821.33337402344
471.855136153509	1813.96667480469
472.589902349272	1793.76672363281
473.32457330693	1780.93334960938
474.059149057119	1763.96667480469
474.79362963045	1756.16662597656
475.528015057532	1744.86669921875
476.262305368964	1736.90002441406
476.996500595326	1728.26672363281
477.730600767187	1731.90002441406
478.464605915109	1723.83337402344
479.198516069647	1721.33337402344
479.932331261319	1717.23327636719
480.666051520664	1712.30004882813
481.399676878186	1713.40002441406
482.133207364394	1715.36669921875
482.866643009762	1714
483.599983844782	1716
484.333229899901	1717.40002441406
485.066381205595	1714.16662597656
485.799437792281	1713.83337402344
486.532399690403	1716.30004882813
487.265266930378	1713.59997558594
487.99803954261	1716.13330078125
488.730717557487	1716.06665039063
489.463301005397	1716.36669921875
490.195789916709	1722.36669921875
490.928184321792	1712.26672363281
491.660484250967	1715.23327636719
492.392689734594	1721.59997558594
493.124800802986	1719.13330078125
493.856817486452	1719.93334960938
494.58873981531	1727.5
495.320567819823	1718.56665039063
496.052301530289	1724.40002441406
496.783940976952	1725.53332519531
497.515486190092	1721.23327636719
498.246937199921	1727.23327636719
498.978294036689	1723.73327636719
499.709556730602	1727.86669921875
500.440725311885	1724.76672363281
501.171799810713	1729.80004882813
501.902780257284	1734.53332519531
502.633666681754	1736.03332519531
503.364459114302	1735.86669921875
504.095157585053	1741.76672363281
504.825762124168	1745.36669921875
505.556272761754	1739.83337402344
506.286689527934	1750.5
507.017012452811	1748.06665039063
507.747241566469	1761.66662597656
508.477376898986	1763.56665039063
509.207418480438	1770
509.937366340876	1776.63330078125
510.667220510335	1784.76672363281
511.396981018857	1795.93334960938
512.126647896458	1807.46667480469
512.856221173163	1824.13330078125
513.585700878942	1844.73327636719
514.315087043803	1867.30004882813
515.044379697715	1886.80004882813
515.773578870639	1916.06665039063
516.502684592527	1954.13330078125
517.231696893324	2016.56665039063
517.960615802948	2066.16674804688
518.689441351322	2129.13330078125
519.418173568352	2193.63330078125
520.146812483938	2264.33325195313
520.875358127946	2304.66674804688
521.603810530268	2346.83325195313
522.332169720741	2359.46655273438
523.060435729237	2358.69995117188
523.788608585567	2323.93334960938
524.516688319583	2291.63330078125
525.244674961073	2253.63330078125
525.97256853986	2195.36669921875
526.700369085727	2154.36669921875
527.428076628453	2107.60009765625
528.155691197806	2078.10009765625
528.88321282354	2046.66662597656
529.610641535404	2018.90002441406
530.337977363139	1995.63330078125
531.065220336448	1975.69995117188
531.792370485059	1955.36669921875
532.51942783867	1936.06665039063
533.246392426952	1921.83337402344
533.973264279613	1910.30004882813
534.700043426288	1898.19995117188
535.426729896655	1882.80004882813
536.153323720336	1876
536.879824926969	1868.13330078125
537.606233546188	1859.69995117188
538.332549607593	1849.63330078125
539.058773140773	1844.23327636719
539.784904175324	1839.33337402344
540.510942740812	1840.13330078125
541.236888866812	1836.69995117188
541.962742582867	1830.09997558594
542.688503918518	1829.33337402344
543.414172903305	1820.73327636719
544.139749566731	1826.19995117188
544.865233938318	1821.43334960938
545.59062604755	1815.5
546.315925923922	1810.96667480469
547.041133596897	1809.26672363281
547.766249095948	1817.69995117188
548.491272450518	1811.80004882813
549.216203690043	1809.86669921875
549.941042843959	1808.40002441406
550.665789941684	1819.09997558594
551.390445012612	1812.59997558594
552.115008086147	1810.80004882813
552.839479191678	1816.83337402344
553.563858358566	1815.30004882813
554.288145616178	1814.43334960938
555.012340993857	1815.96667480469
555.736444520946	1820.96667480469
556.460456226776	1819.63330078125
557.184376140661	1821.96667480469
557.908204291912	1822.80004882813
558.63194070981	1823.63330078125
559.355585423641	1823.93334960938
560.079138462681	1826.59997558594
560.802599856191	1825.86669921875
561.525969633418	1831.80004882813
562.249247823596	1831.80004882813
562.972434455954	1833.93334960938
563.695529559719	1836.80004882813
564.418533164078	1846.30004882813
565.14144529824	1848.03332519531
565.864265991379	1848.5
566.586995272669	1852.73327636719
567.309633171277	1862.90002441406
568.032179716338	1865.63330078125
568.754634937001	1876.69995117188
569.476998862388	1887.93334960938
570.19927152162	1896.40002441406
570.921452943799	1892.93334960938
571.643543158016	1892.53332519531
572.36554219336	1875.90002441406
573.087450078895	1881.19995117188
573.809266843695	1868.26672363281
574.530992516797	1855.40002441406
575.252627127239	1841.40002441406
575.974170704067	1844.59997558594
576.695623276275	1841.69995117188
577.416984872882	1832.93334960938
578.138255522875	1846.46667480469
578.859435255253	1835.96667480469
579.580524098969	1842.06665039063
580.301522082995	1842.63330078125
581.022429236289	1846.73327636719
581.743245587771	1843.96667480469
582.463971166388	1843.69995117188
583.184606001047	1848.63330078125
583.905150120664	1847.73327636719
584.625603554127	1849.90002441406
585.34596633033	1851.09997558594
586.066238478129	1850.66662597656
586.786420026421	1852.06665039063
587.506511004016	1864.5
588.226511439786	1862.53332519531
588.946421362547	1855.40002441406
589.666240801135	1864.16662597656
590.385969784333	1869.69995117188
591.105608340966	1870.03332519531
591.825156499789	1863.09997558594
592.544614289615	1873.93334960938
593.263981739181	1883.63330078125
593.983258877254	1879.69995117188
594.702445732576	1886.16662597656
595.421542333874	1891.83337402344
596.140548709874	1894.33337402344
596.859464889292	1899.80004882813
597.578290900819	1905.5
598.297026773147	1900.80004882813
599.01567253495	1899.16662597656
599.734228214907	1898.33337402344
600.452693841658	1893.66662597656
601.171069443876	1880.66662597656
601.889355050169	1867.13330078125
602.607550689164	1851.59997558594
603.325656389494	1836.83337402344
604.043672179739	1821.26672363281
604.761598088507	1806.63330078125
605.479434144369	1802.36669921875
606.197180375904	1793.93334960938
606.914836811665	1788.19995117188
607.632403480208	1782.03332519531
608.349880410053	1780.46667480469
609.067267629757	1771.5
609.784565167799	1780.30004882813
610.50177305272	1782.86669921875
611.218891312991	1777.40002441406
611.935919977112	1778.96667480469
612.652859073553	1784.03332519531
613.369708630773	1774.96667480469
614.086468677222	1788.83337402344
614.803139241348	1786.40002441406
615.519720351572	1785.93334960938
616.236212036331	1790.59997558594
616.952614324014	1791.5
617.668927243039	1789.66662597656
618.385150821779	1796.16662597656
619.101285088619	1792.80004882813
619.817330071927	1791.46667480469
620.53328580005	1795.69995117188
621.249152301349	1789.19995117188
621.964929604144	1787.23327636719
622.680617736767	1788.09997558594
623.396216727521	1790.03332519531
624.111726604722	1798.86669921875
624.827147396658	1801.80004882813
625.542479131611	1788
626.257721837851	1798.86669921875
626.972875543643	1791.30004882813
627.687940277219	1795.76672363281
628.40291606684	1797.63330078125
629.117802940721	1797.56665039063
629.832600927097	1800.5
630.547310054154	1796.03332519531
631.261930350103	1798.23327636719
631.976461843122	1794.23327636719
632.690904561388	1791.5
633.405258533073	1791.56665039063
634.119523786327	1788.46667480469
634.833700349299	1785.86669921875
635.547788250108	1781.13330078125
636.261787516889	1786.09997558594
636.975698177757	1779.59997558594
637.689520260806	1773.80004882813
638.403253794135	1778.30004882813
639.116898805813	1773.69995117188
639.830455323923	1772.09997558594
640.543923376526	1772.63330078125
641.257302991654	1763.33337402344
641.97059419737	1761.23327636719
642.683797021684	1766.23327636719
643.396911492625	1758.33337402344
644.109937638189	1752.30004882813
644.822875486383	1741.80004882813
645.535725065189	1738.83337402344
646.24848640259	1737.90002441406
646.961159526541	1729.43334960938
647.673744465009	1732.03332519531
648.386241245922	1717.36669921875
649.098649897237	1710.63330078125
649.810970446856	1719.30004882813
650.523202922707	1716.26672363281
651.235347352688	1706.66662597656
651.947403764692	1709.36669921875
652.6593721866	1705.09997558594
653.37125264629	1705.83337402344
654.083045171609	1709.76672363281
654.79474979043	1703.76672363281
655.506366530575	1703.40002441406
656.217895419889	1708.46667480469
656.929336486172	1704.93334960938
657.640689757255	1702.33337402344
658.351955260922	1705.73327636719
659.063133024971	1704.40002441406
659.774223077175	1702.93334960938
660.485225445308	1706.5
661.196140157123	1703.59997558594
661.906967240365	1699.80004882813
662.617706722782	1701.09997558594
663.328358632091	1701.90002441406
664.038922996016	1704.69995117188
664.749399842249	1700.23327636719
665.459789198507	1705.43334960938
666.170091092458	1700.90002441406
666.880305551784	1702.80004882813
667.590432604155	1704
668.300472277216	1707.90002441406
669.01042459862	1707.59997558594
669.720289595993	1707.33337402344
670.430067296964	1712.30004882813
671.139757729146	1708.73327636719
671.849360920142	1709.63330078125
672.558876897549	1713.26672363281
673.268305688942	1711
673.977647321902	1711.23327636719
674.686901823982	1716.73327636719
675.396069222745	1714.09997558594
676.105149545725	1717.06665039063
676.81414282046	1711.06665039063
677.523049074465	1711.13330078125
678.231868335251	1711.30004882813
678.940600630328	1711.23327636719
679.649245987172	1710.36669921875
680.35780443329	1704.53332519531
681.066275996125	1707.5
681.77466070315	1708.63330078125
682.482958581809	1705.13330078125
683.191169659556	1708.36669921875
683.899293963803	1706.06665039063
684.60733152198	1705.16662597656
685.315282361489	1702.26672363281
686.023146509742	1708.96667480469
686.730923994122	1703.26672363281
687.438614841998	1707.13330078125
688.146219080748	1703.26672363281
688.853736737737	1705.33337402344
689.561167840308	1703.09997558594
690.268512415792	1703.66662597656
690.975770491533	1699.5
691.682942094835	1707.13330078125
692.390027253004	1699.90002441406
693.097025993363	1703.23327636719
693.803938343168	1701.46667480469
694.510764329722	1705.86669921875
695.217503980276	1698.96667480469
695.9241573221	1707.33337402344
696.63072438243	1708.13330078125
697.337205188513	1704.59997558594
698.043599767579	1713.43334960938
698.749908146834	1714.66662597656
699.456130353494	1717.96667480469
700.162266414748	1718.06665039063
700.868316357798	1715.23327636719
701.574280209806	1720.23327636719
702.280157997948	1723.83337402344
702.985949749382	1724.03332519531
703.691655491252	1723.40002441406
704.397275250694	1730.46667480469
705.102809054837	1725
705.808256930795	1730.76672363281
706.513618905686	1730.93334960938
707.218895006592	1726
707.924085260618	1731.69995117188
708.629189694824	1724.63330078125
709.334208336292	1725.53332519531
710.039141212057	1720.40002441406
710.743988349195	1721.33337402344
711.448749774726	1716.5
712.153425515681	1718
712.858015599075	1710
713.562520051922	1715.96667480469
714.266938901217	1716.73327636719
714.971272173936	1709.5
715.675519897077	1712.80004882813
716.379682097595	1707.90002441406
717.083758802453	1712.73327636719
717.787750038595	1710.83337402344
718.491655832963	1712.16662597656
719.195476212478	1714.36669921875
719.899211204065	1713.76672363281
720.602860834625	1715.76672363281
721.306425131073	1722.63330078125
722.009904120281	1728.30004882813
722.713297829139	1736.09997558594
723.416606284497	1736
724.119829513234	1734.56665039063
724.822967542194	1734.43334960938
725.526020398215	1740.63330078125
726.228988108123	1735.19995117188
726.931870698739	1733.26672363281
727.63466819687	1733.36669921875
728.337380629327	1726.5
729.040008022882	1727.36669921875
729.742550404337	1733.5
730.445007800446	1730.96667480469
731.147380237972	1723.90002441406
731.84966774367	1730.13330078125
732.551870344277	1732.5
733.253988066531	1739.16662597656
733.956020937138	1742.43334960938
734.65796898283	1741.03332519531
735.359832230293	1746.86669921875
736.061610706225	1745.30004882813
736.763304437305	1745.80004882813
737.464913450207	1751.40002441406
738.166437771599	1753.56665039063
738.867877428125	1761.19995117188
739.569232446433	1762.66662597656
740.270502853152	1760.69995117188
740.971688674921	1762.19995117188
741.672789938327	1771.33337402344
742.373806669988	1767
743.074738896511	1769.16662597656
743.775586644459	1779.13330078125
744.476349940422	1780.13330078125
745.17702881095	1784.06665039063
745.877623282621	1785
746.578133381957	1787.90002441406
747.278559135505	1792.36669921875
747.978900569793	1796.33337402344
748.679157711339	1793.26672363281
749.379330586641	1805.46667480469
750.0794192222	1803.26672363281
750.779423644508	1805.26672363281
751.479343880037	1801.66662597656
752.179179955261	1798.09997558594
752.878931896634	1807
753.578599730608	1799.5
754.278183483618	1805
754.977683182097	1800.46667480469
755.677098852465	1806.86669921875
756.376430521131	1808.43334960938
757.07567821449	1800.83337402344
757.774841958949	1799.03332519531
758.473921780873	1796.59997558594
759.172917706636	1788.30004882813
759.871829762612	1797.09997558594
760.570657975148	1789.26672363281
761.269402370572	1785.63330078125
761.96806297524	1780.69995117188
762.66663981546	1773
763.365132917561	1773.93334960938
764.063542307824	1775.5
764.761868012567	1764.69995117188
765.460110058069	1762.33337402344
766.158268470599	1765.43334960938
766.856343276424	1758.33337402344
767.55433450181	1746
768.252242172994	1738.96667480469
768.950066316215	1739.06665039063
769.64780695771	1725.23327636719
770.345464123687	1727.63330078125
771.043037840361	1723.83337402344
771.740528133929	1717.96667480469
772.437935030586	1724.16662597656
773.1352585565	1716.93334960938
773.832498737855	1718.69995117188
774.529655600803	1726.76672363281
775.226729171507	1727.96667480469
775.923719476093	1735.53332519531
776.62062654071	1738.16662597656
777.317450391468	1744.09997558594
778.014191054486	1746.40002441406
778.710848555868	1755.5
779.407422921714	1756.69995117188
780.103914178108	1764.30004882813
780.800322351114	1766.59997558594
781.496647466815	1766.93334960938
782.192889551254	1766.40002441406
782.889048630491	1758.93334960938
783.585124730549	1761.56665039063
784.281117877468	1753.16662597656
784.977028097273	1759.86669921875
785.672855415956	1751
786.368599859532	1746.69995117188
787.064261453981	1748.76672363281
787.759840225299	1741.40002441406
788.455336199433	1746.16662597656
789.150749402372	1740.33337402344
789.84607986005	1738.26672363281
790.541327598425	1735.76672363281
791.236492643427	1726.76672363281
791.931575020975	1725.26672363281
792.62657475699	1719.73327636719
793.321491877375	1721.76672363281
794.016326408036	1716.46667480469
794.711078374848	1713.76672363281
795.405747803693	1715.06665039063
796.100334720443	1708.76672363281
796.794839150954	1705.96667480469
797.489261121072	1712
798.183600656654	1707.43334960938
798.877857783511	1708.06665039063
799.57203252748	1704.66662597656
800.266124914366	1704.66662597656
800.960134969973	1707.23327636719
801.654062720095	1704.83337402344
802.347908190512	1706.26672363281
803.041671407007	1705.56665039063
803.735352395342	1710.03332519531
804.428951181284	1707.86669921875
805.12246779056	1706.83337402344
805.815902248922	1713.36669921875
806.509254582093	1715.13330078125
807.202524815801	1708.26672363281
807.895712975749	1718.16662597656
808.58881908764	1709.33337402344
809.281843177157	1714.23327636719
809.974785270003	1711.40002441406
810.667645391826	1716.09997558594
811.360423568309	1717.59997558594
812.053119825096	1715.63330078125
812.745734187831	1722.30004882813
813.438266682161	1722.30004882813
814.130717333705	1725.5
814.823086168076	1726.53332519531
815.515373210889	1728.36669921875
816.207578487748	1727.76672363281
816.899702024235	1734.40002441406
817.591743845928	1737.73327636719
818.283703978398	1738.43334960938
818.975582447225	1740.09997558594
819.667379277938	1744.80004882813
820.35909449609	1740.69995117188
821.050728127216	1737.63330078125
821.742280196848	1742
822.433750730493	1741.5
823.125139753662	1741.40002441406
823.816447291855	1733
824.507673370549	1731.19995117188
825.198818015231	1732.13330078125
825.889881251374	1730.23327636719
826.580863104442	1728.46667480469
827.271763599872	1726.13330078125
827.962582763119	1721.5
828.653320619618	1718.93334960938
829.343977194791	1717.19995117188
830.034552514045	1715.86669921875
830.72504660279	1707.53332519531
831.415459486432	1706.73327636719
832.105791190354	1708.66662597656
832.79604173993	1703.46667480469
833.486211160532	1699.56665039063
834.17629947752	1698.69995117188
834.866306716248	1702.86669921875
835.556232902058	1696.86669921875
836.246078060281	1695.30004882813
836.935842216239	1690.93334960938
837.625525395254	1694.26672363281
838.315127622627	1688.13330078125
839.004648923652	1689.40002441406
839.694089323628	1692.73327636719
840.383448847822	1690.73327636719
841.072727521511	1686.26672363281
841.761925369946	1687.23327636719
842.451042418394	1691.63330078125
843.140078692075	1688.56665039063
843.829034216243	1682.83337402344
844.517909016119	1695.59997558594
845.206703116904	1691.09997558594
845.895416543824	1687
846.584049322062	1686.03332519531
847.272601476817	1688.66662597656
847.961073033249	1685.16662597656
848.649464016547	1689.53332519531
849.337774451864	1687.76672363281
850.026004364355	1688.80004882813
850.714153779165	1686.06665039063
851.402222721422	1689.96667480469
852.090211216251	1686.13330078125
852.778119288776	1686.26672363281
853.4659469641	1686.13330078125
854.153694267314	1686.13330078125
854.841361223513	1688.5
855.528947857783	1688.80004882813
856.216454195189	1685.66662597656
856.903880260794	1690.13330078125
857.591226079641	1688.09997558594
858.27849167679	1690.19995117188
858.965677077272	1685.66662597656
859.652782306111	1682.56665039063
860.339807388328	1689.46667480469
861.026752348915	1690.46667480469
861.713617212895	1684.86669921875
862.400402005248	1686.40002441406
863.087106750952	1685.96667480469
863.773731474988	1690.13330078125
864.460276202314	1689
865.146740957882	1689.83337402344
865.833125766649	1684.36669921875
866.519430653541	1689.83337402344
867.205655643482	1687.83337402344
867.891800761413	1687.66662597656
868.577866032225	1683.59997558594
869.263851480817	1686.06665039063
869.949757132104	1686.56665039063
870.635583010948	1684.73327636719
871.321329142234	1683.46667480469
872.00699555082	1682.86669921875
872.692582261571	1681.33337402344
873.37808929933	1680.93334960938
874.063516688943	1679.93334960938
874.748864455231	1684.26672363281
875.434132623022	1680.43334960938
876.119321217122	1682.26672363281
876.80443026235	1678.83337402344
877.489459783479	1678.86669921875
878.174409805313	1679.69995117188
878.859280352625	1681.19995117188
879.544071450178	1680.56665039063
880.228783122741	1676.69995117188
880.913415395058	1679.33337402344
881.597968291876	1685.76672363281
882.282441837917	1679.90002441406
882.966836057924	1683.06665039063
883.651150976588	1676.83337402344
884.335386618638	1680.66662597656
885.019543008762	1682.19995117188
885.703620171653	1680.83337402344
886.387618131987	1679.53332519531
887.071536914444	1681.30004882813
887.755376543681	1684.09997558594
888.439137044354	1680.63330078125
889.122818441092	1680.40002441406
889.806420758563	1677.53332519531
890.489944021374	1681.03332519531
891.17338825415	1688.26672363281
891.856753481496	1680.96667480469
892.540039728018	1678.13330078125
893.223247018304	1678.40002441406
893.906375376951	1680.76672363281
894.589424828519	1683.36669921875
895.272395397583	1682
895.9552871087	1678.86669921875
896.638099986421	1681.13330078125
897.32083405528	1679.16662597656
898.003489339815	1679.06665039063
898.686065864547	1682.40002441406
899.368563653989	1680.06665039063
900.05098273265	1677.33337402344
900.73332312502	1681.96667480469
901.415584855594	1679.23327636719
902.09776794885	1677.53332519531
902.779872429265	1679.33337402344
903.461898321282	1682.43334960938
904.143845649382	1678.93334960938
904.825714437982	1680.56665039063
905.507504711537	1684.90002441406
906.189216494465	1680.19995117188
906.870849811185	1681.63330078125
907.55240468612	1680.5
908.23388114366	1680.69995117188
908.915279208196	1682.86669921875
909.596598904118	1680.73327636719
910.277840255801	1682.5
910.959003287608	1680.46667480469
911.640088023892	1681.69995117188
912.32109448903	1677.33337402344
913.002022707327	1681
913.682872703143	1680.23327636719
914.363644500786	1679.66662597656
915.044338124572	1682.56665039063
915.724953598816	1681.36669921875
916.405490947812	1682.93334960938
917.08595019585	1681.43334960938
917.766331367211	1678.06665039063
918.446634486172	1680.36669921875
919.126859576979	1680.23327636719
919.807006663897	1678.69995117188
920.487075771186	1681.80004882813
921.167066923067	1682.30004882813
921.846980143778	1679.76672363281
922.526815457533	1681.30004882813
923.206572888542	1682.80004882813
923.886252461025	1681.56665039063
924.565854199158	1678.46667480469
925.245378127137	1681.30004882813
925.924824269132	1686.53332519531
926.604192649339	1686.19995117188
927.28348329188	1685.13330078125
927.962696220933	1683.06665039063
928.641831460637	1682.83337402344
929.320889035124	1687.33337402344
929.999868968515	1685.86669921875
930.678771284941	1686.16662597656
931.357596008509	1691.53332519531
932.036343163312	1693.63330078125
932.715012773449	1688.46667480469
933.393604863005	1692.56665039063
934.072119456057	1692.66662597656
934.750556576661	1696.5
935.428916248893	1699.30004882813
936.107198496784	1698
936.785403344392	1702.53332519531
937.463530815739	1699.86669921875
938.141580934859	1703.5
938.819553725761	1703.83337402344
939.497449212455	1707.46667480469
940.175267418943	1708.80004882813
940.853008369217	1710.09997558594
941.530672087252	1710.76672363281
942.208258597034	1712.36669921875
942.88576792251	1715.16662597656
943.563200087657	1713.19995117188
944.240555116409	1715.36669921875
944.917833032714	1722.13330078125
945.595033860499	1712.40002441406
946.2721576237	1714.03332519531
946.949204346208	1710.63330078125
947.626174051953	1714.03332519531
948.30306676482	1709.73327636719
948.979882508703	1709.06665039063
949.656621307485	1713.30004882813
950.333283185039	1712.5
951.009868165216	1712.76672363281
951.686376271891	1708.19995117188
952.362807528901	1713.66662597656
953.03916196009	1713.69995117188
953.715439589288	1709.09997558594
954.391640440314	1713.26672363281
955.067764536986	1709.73327636719
955.74381190311	1707.86669921875
956.419782562481	1715.33337402344
957.095676538886	1712.63330078125
957.771493856112	1709.46667480469
958.447234537921	1716.40002441406
959.122898608092	1713.40002441406
959.798486090369	1712.76672363281
960.473997008503	1708.46667480469
961.149431386226	1713.36669921875
961.824789247285	1711.26672363281
962.500070615388	1711
963.175275514248	1719.5
963.850403967579	1709.43334960938
964.525455999079	1715.69995117188
965.200431632428	1715.26672363281
965.875330891311	1710.53332519531
966.550153799403	1715.80004882813
967.224900380363	1716.19995117188
967.899570657855	1719.36669921875
968.574164655517	1713.73327636719
969.24868239699	1709.43334960938
969.923123905908	1714.30004882813
970.597489205892	1718.16662597656
971.27177832055	1713.26672363281
971.945991273505	1713.53332519531
972.620128088335	1718.93334960938
973.29418878864	1720.53332519531
973.968173398004	1714.36669921875
974.642081939996	1714.46667480469
975.315914438171	1717.5
975.989670916094	1718.16662597656
976.663351397316	1719.03332519531
977.336955905378	1716.46667480469
978.010484463804	1717.90002441406
978.683937096118	1717.93334960938
979.357313825837	1720.23327636719
980.030614676472	1718.43334960938
980.703839671514	1719.16662597656
981.376988834455	1718.73327636719
982.050062188785	1718.36669921875
982.723059757969	1715.03332519531
983.395981565477	1717.26672363281
984.068827634767	1715.19995117188
984.741597989282	1717.19995117188
985.414292652472	1713.5
986.086911647764	1711.56665039063
986.759454998581	1709.93334960938
987.431922728346	1713.09997558594
988.10431486046	1712.13330078125
988.776631418332	1713.76672363281
989.448872425341	1709.73327636719
990.121037904883	1708.36669921875
990.793127880332	1707.43334960938
991.465142375048	1707.69995117188
992.137081412394	1708.80004882813
992.808945015717	1700.90002441406
993.48073320837	1705.16662597656
994.152446013679	1698.13330078125
994.824083454977	1699.66662597656
995.495645555577	1700.86669921875
996.167132338785	1694.80004882813
996.838543827912	1695.56665039063
997.509880046252	1693.36669921875
998.181141017087	1698.06665039063
998.852326763699	1693.59997558594
999.523437309342	1690.53332519531
1000.1944726773	1690.36669921875
1000.86543289081	1684.30004882813
1001.53631797312	1684.5
1002.20712794747	1687.46667480469
1002.87786283709	1689.73327636719
1003.5485226652	1690.93334960938
1004.21910745501	1691.93334960938
1004.88961722973	1687.13330078125
1005.56005201255	1687.03332519531
1006.23041182666	1682.96667480469
1006.90069669524	1689.23327636719
1007.57090664147	1689.86669921875
1008.24104168851	1682.76672363281
1008.9111018595	1683.63330078125
1009.58108717761	1686.03332519531
1010.25099766598	1681.80004882813
1010.92083334773	1682.80004882813
1011.59059424598	1684.13330078125
1012.26028038385	1687.76672363281
1012.92989178446	1683.03332519531
1013.59942847091	1683.43334960938
1014.26889046627	1678.43334960938
1014.93827779364	1683.86669921875
1015.60759047608	1682.90002441406
1016.27682853668	1683.36669921875
1016.94599199848	1684.69995117188
1017.61508088455	1682.90002441406
1018.28409521791	1680.5
1018.95303502162	1681.56665039063
1019.62190031868	1678.36669921875
1020.29069113213	1676.40002441406
1020.95940748498	1679.33337402344
1021.62804940023	1675.59997558594
1022.29661690087	1675.53332519531
1022.96511000988	1675.90002441406
1023.63352875027	1674.53332519531
1024.30187314498	1675.40002441406
1024.97014321699	1677.30004882813
1025.63833898925	1671.33337402344
1026.3064604847	1672.53332519531
1026.9745077263	1675.40002441406
1027.64248073695	1673
1028.3103795396	1673.23327636719
1028.97820415717	1671.93334960938
1029.64595461253	1678.06665039063
1030.31363092861	1672.80004882813
1030.9812331283	1666.36669921875
1031.64876123448	1672.36669921875
1032.31621527001	1673.13330078125
1032.98359525779	1669.83337402344
1033.65090122065	1669.19995117188
1034.31813318144	1674.5
1034.98529116303	1674.86669921875
1035.65237518824	1670.03332519531
1036.3193852799	1671.16662597656
1036.98632146083	1671.09997558594
1037.65318375384	1666.63330078125
1038.31997218173	1667.09997558594
1038.98668676731	1673.93334960938
1039.65332753335	1672.63330078125
1040.31989450265	1667.56665039063
1040.98638769797	1668.80004882813
1041.65280714207	1669.06665039063
1042.31915285773	1670.23327636719
1042.98542486766	1672.30004882813
1043.65162319464	1672.93334960938
1044.31774786138	1669.43334960938
1044.98379889061	1669.43334960938
1045.64977630505	1666.53332519531
1046.3156801274	1666.36669921875
1046.98151038038	1670.86669921875
1047.64726708667	1665.90002441406
1048.31295026895	1669.96667480469
1048.97855994991	1670.40002441406
1049.64409615221	1669.90002441406
1050.30955889852	1669.53332519531
1050.97494821149	1670.53332519531
1051.64026411378	1666.66662597656
1052.30550662801	1665.69995117188
1052.9706757768	1667.66662597656
1053.6357715828	1666.19995117188
1054.30079406862	1667.56665039063
1054.96574325686	1667.5
1055.63061917012	1668.43334960938
1056.29542183099	1668.03332519531
1056.96015126205	1664.59997558594
1057.62480748589	1667.09997558594
1058.28939052507	1667.16662597656
1058.95390040214	1666.13330078125
1059.61833713967	1667.43334960938
1060.28270076019	1661.93334960938
1060.94699128624	1663.66662597656
1061.61120874035	1663.16662597656
1062.27535314506	1662.90002441406
1062.93942452285	1666.96667480469
1063.60342289624	1668.33337402344
1064.26734828774	1664.59997558594
1064.93120071982	1663.09997558594
1065.59498021498	1660.03332519531
1066.25868679568	1665.46667480469
1066.92232048439	1665.73327636719
1067.58588130357	1666.76672363281
1068.24936927567	1666.46667480469
1068.91278442313	1668.90002441406
1069.5761267684	1664.43334960938
1070.23939633389	1664.36669921875
1070.90259314204	1662.86669921875
1071.56571721524	1666.80004882813
1072.22876857591	1661.96667480469
1072.89174724643	1668.90002441406
1073.55465324921	1666.66662597656
1074.21748660662	1666.96667480469
1074.88024734103	1665.26672363281
1075.54293547481	1660.43334960938
1076.20555103032	1663.59997558594
1076.86809402991	1665.19995117188
1077.53056449592	1665.40002441406
1078.19296245068	1666.26672363281
1078.85528791653	1661.96667480469
1079.51754091578	1662.56665039063
1080.17972147075	1663.40002441406
1080.84182960373	1666.93334960938
1081.50386533702	1663.09997558594
1082.16582869292	1668.26672363281
1082.82771969371	1663.86669921875
1083.48953836164	1663.13330078125
1084.151284719	1665.83337402344
1084.81295878805	1664.16662597656
1085.47456059102	1664.73327636719
1086.13609015016	1666.40002441406
1086.79754748771	1667.96667480469
1087.45893262589	1664.36669921875
1088.12024558693	1663.06665039063
1088.78148639303	1664.33337402344
1089.4426550664	1664.63330078125
1090.10375162923	1667
1090.76477610373	1663.69995117188
1091.42572851205	1665.16662597656
1092.08660887639	1663.23327636719
1092.74741721889	1665.86669921875
1093.40815356173	1666.33337402344
1094.06881792706	1666.96667480469
1094.72941033701	1666.56665039063
1095.38993081372	1664.46667480469
1096.05037937931	1666.59997558594
1096.71075605592	1663.19995117188
1097.37106086565	1666.59997558594
1098.03129383061	1664.83337402344
1098.69145497288	1668.5
1099.35154431456	1667.46667480469
1100.01156187774	1664.16662597656
1100.6715076845	1661.80004882813
1101.33138175687	1661.03332519531
