-62.8802656760145	1570.23327636719
-62.0712801655087	1570.56665039063
-61.2624144408879	1571.43334960938
-60.4536684613764	1570.36669921875
-59.6450421861946	1570.69995117188
-58.8365355746153	1570.73327636719
-58.0281485858832	1569.46667480469
-57.2198811793115	1570.13330078125
-56.4117333141813	1570.80004882813
-55.6037049498382	1570.26672363281
-54.7957960456036	1570.30004882813
-53.9880065608474	1571.96667480469
-53.1803364549354	1572.46667480469
-52.3727856872778	1569.56665039063
-51.5653542172727	1571.26672363281
-50.7580420043586	1570.36669921875
-49.9508490079698	1571.40002441406
-49.143775187589	1571.33337402344
-48.3368205026788	1570.46667480469
-47.5299849127581	1570.43334960938
-46.7232683773338	1572.03332519531
-45.9166708559529	1571.03332519531
-45.1101923081504	1571.23327636719
-44.3038326935136	1570.40002441406
-43.4975919716136	1570.83337402344
-42.6914701020778	1570.90002441406
-41.8854670445174	1571.13330078125
-41.07958275858	1570.86669921875
-40.2738172039169	1570.66662597656
-39.4681703402036	1570.16662597656
-38.6626421271476	1570.93334960938
-37.8572325244484	1570.80004882813
-37.0519414918416	1570.5
-36.2467689890625	1571.36669921875
-35.441714975895	1571.90002441406
-34.6367794121022	1570.90002441406
-33.8319622574879	1570.40002441406
-33.0272634718794	1570.30004882813
-32.2226830151083	1570.56665039063
-31.4182208470059	1571.19995117188
-30.6138769274635	1570.73327636719
-29.8096512163686	1573.30004882813
-29.0055436736122	1570.90002441406
-28.2015542591217	1570.53332519531
-27.397682932832	1571
-26.5939296547063	1569.80004882813
-25.7902943847235	1570.09997558594
-24.9867770828543	1570.5
-24.1833777091256	1570.63330078125
-23.3800962235519	1570.59997558594
-22.5769325861837	1570.53332519531
-21.7738867570794	1569.13330078125
-20.9709586963133	1571.33337402344
-20.1681483639916	1571.40002441406
-19.365455720212	1570.90002441406
-18.5628807251165	1570.59997558594
-17.7604233388427	1571.16662597656
-16.9580835215601	1572
-16.1558612334539	1569.73327636719
-15.3537564347134	1570.96667480469
-14.5517690855595	1570.90002441406
-13.7498991462288	1571
-12.94814657697	1569.83337402344
-12.1465113380514	1571.16662597656
-11.3449933897571	1571.46667480469
-10.543592692387	1570.93334960938
-9.74230920626065	1570.96667480469
-8.9411428917136	1571.46667480469
-8.14009370910902	1570.76672363281
-7.33916161880982	1570.40002441406
-6.53834658120667	1570.23327636719
-5.73764855670195	1571.06665039063
-4.9370675057178	1571
-4.13660338870815	1569.90002441406
-3.33625616610644	1571.13330078125
-2.53602579839399	1571.5
-1.73591224606778	1571
-0.93591546962846	1571.36669921875
-0.136035429612425	1570.03332519531
0.663727913452362	1572.03332519531
1.46337459899013	1581.06665039063
2.26290466644961	1591.40002441406
3.06231815521169	1590.43334960938
3.86161510468576	1578.63330078125
4.66079555422945	1571
5.45985954321688	1570.53332519531
6.25880711096637	1571.76672363281
7.05763829681681	1571.93334960938
7.85635314006331	1571.03332519531
8.65495168000148	1570.73327636719
9.45343395589124	1570.16662597656
10.251800007001	1571.73327636719
11.0500498725555	1570.23327636719
11.848183591788	1570.19995117188
12.6462012038881	1571.76672363281
13.4441027480499	1571.26672363281
14.2418882634437	1571.03332519531
15.0395577892247	1570.59997558594
15.8371113645201	1571.73327636719
16.6345490284539	1571.46667480469
17.4318708201263	1571.80004882813
18.2290767786302	1570.76672363281
19.0261669430227	1570.06665039063
19.8231413523778	1570.59997558594
20.6200000456976	1571.23327636719
21.4167430620288	1571.63330078125
22.2133704403548	1571.30004882813
23.0098822196713	1571.23327636719
23.8062784389426	1570.63330078125
24.6025591371175	1570.73327636719
25.3987243531334	1571.40002441406
26.1947741259042	1570.69995117188
26.9907084943443	1570.90002441406
27.7865274973208	1570.69995117188
28.5822311737091	1571.86669921875
29.3778195623575	1571
30.1732927021065	1570.63330078125
30.9686506317656	1572.16662597656
31.7638933901446	1570.76672363281
32.5590210160179	1571.13330078125
33.3540335481646	1571.23327636719
34.1489310253285	1571.16662597656
34.9437134862418	1571.33337402344
35.7383809696253	1570
36.5329335141808	1569.80004882813
37.3273711585903	1570.33337402344
38.1216939415287	1571.40002441406
38.9159019016394	1570.03332519531
39.7099950775626	1571.43334960938
40.5039735079151	1571.69995117188
41.2978372312983	1570.73327636719
42.0915862862985	1570.59997558594
42.8852207114822	1570.53332519531
43.6787405454012	1571.23327636719
44.4721458265996	1570.83337402344
45.2654365935904	1570.5
46.058612884867	1571.46667480469
46.8516747389399	1571.73327636719
47.6446221942481	1570.63330078125
48.4374552892714	1571.5
49.2301740624383	1570.43334960938
50.0227785521661	1571.26672363281
50.8152687968608	1570.80004882813
51.6076448349091	1571.90002441406
52.3999067046866	1570.59997558594
53.1920544445376	1570.93334960938
53.9840880928151	1570.33337402344
54.7760076878371	1571.13330078125
55.567813267906	1572.46667480469
56.3595048713054	1571.5
57.1510825363196	1571.93334960938
57.9425463012015	1570.90002441406
58.733896204193	1570.83337402344
59.5251322835168	1570.46667480469
60.3162545773685	1571.96667480469
61.1072631239722	1571.93334960938
61.8981579614694	1572.56665039063
62.6889391280379	1572.63330078125
63.4796066618127	1573.19995117188
64.2701606009215	1576.09997558594
65.0606009834849	1576.63330078125
65.8509278475725	1578.19995117188
66.6411412312945	1578.16662597656
67.4312411726863	1580.69995117188
68.221227709804	1582.26672363281
69.0111008806766	1585.09997558594
69.8008607233221	1588.16662597656
70.5905072757234	1592.13330078125
71.3800405758802	1597.69995117188
72.1694606617374	1601
72.9587675712524	1605.40002441406
73.747961342356	1608.76672363281
74.5370420129716	1618.69995117188
75.3260096209917	1624
76.1148642042977	1629.53332519531
76.9036058007681	1634.43334960938
77.6922344482463	1639.40002441406
78.4807501845685	1645.63330078125
79.2691530475681	1647.43334960938
80.0574430750156	1650.13330078125
80.845620304738	1656.93334960938
81.6336847744759	1660.23327636719
82.4216365220025	1663.80004882813
83.2094755850442	1665.73327636719
83.9972020013364	1670.66662597656
84.7848158085834	1674.53332519531
85.5723170444668	1679.23327636719
86.3597057466849	1673.13330078125
87.1469819528733	1676.26672363281
87.9341457006927	1678.23327636719
88.7211970277526	1675.23327636719
89.5081359716837	1677.23327636719
90.2949625700579	1682.19995117188
91.081676860484	1680.03332519531
91.8682788805079	1679.26672363281
92.6547686676808	1679.56665039063
93.4411462595307	1679.76672363281
94.2274116935869	1684.26672363281
95.0135650073277	1682.69995117188
95.7996062382647	1687.86669921875
96.5855354238424	1685
97.3713526015265	1685.06665039063
98.157057808752	1685.5
98.9426510829309	1687.43334960938
99.7281324614842	1689.73327636719
100.513501981782	1693.69995117188
101.298759681221	1688.43334960938
102.083905597144	1690.66662597656
102.868939766891	1691.76672363281
103.653862227798	1692.83337402344
104.438673017168	1692.83337402344
105.223372172302	1691.5
106.007959730469	1699.36669921875
106.792435728938	1697.69995117188
107.576800204962	1693.63330078125
108.361053195763	1696.63330078125
109.145194738568	1695.59997558594
109.929224870558	1702.13330078125
110.71314362894	1696.36669921875
111.496951050867	1700.5
112.280647173509	1696.86669921875
113.064232033987	1696.96667480469
113.847705669429	1702.80004882813
114.631068116938	1702.73327636719
115.414319413616	1701.59997558594
116.197459596525	1704.80004882813
116.980488702734	1700.90002441406
117.76340676928	1702.09997558594
118.546213833194	1705.96667480469
119.328909931491	1705.36669921875
120.111495101165	1709.19995117188
120.893969379195	1708.63330078125
121.676332802552	1710.33337402344
122.458585408185	1716.30004882813
123.240727233033	1718
124.022758314001	1725.03332519531
124.804678688012	1721.73327636719
125.586488391943	1731.56665039063
126.368187462664	1728.90002441406
127.149775937045	1729.43334960938
127.931253851906	1730.90002441406
128.712621244105	1733.59997558594
129.493878150424	1736.03332519531
130.275024607679	1734.03332519531
131.05606065263	1737.63330078125
131.836986322054	1730.96667480469
132.617801652702	1737.96667480469
133.398506681303	1736.19995117188
134.179101444575	1740.53332519531
134.959585979225	1746.26672363281
135.739960321933	1745.09997558594
136.520224509383	1750.06665039063
137.30037857821	1753
138.080422565087	1754
138.860356506612	1757.40002441406
139.640180439409	1755.80004882813
140.419894400069	1760.09997558594
141.199498425174	1757
141.978992551284	1760.46667480469
142.758376814962	1758.40002441406
143.537651252719	1763.53332519531
144.3168159011	1764.86669921875
145.095870796584	1766.23327636719
145.874815975682	1774.40002441406
146.653651474851	1769.43334960938
147.432377330548	1777.83337402344
148.210993579225	1777.66662597656
148.989500257303	1785.69995117188
149.767897401202	1789.66662597656
150.546185047308	1786.69995117188
151.324363232007	1796.13330078125
152.102431991664	1795.63330078125
152.880391362628	1791.90002441406
153.658241381243	1795.43334960938
154.435982083826	1797.03332519531
155.213613506675	1793.40002441406
155.991135686104	1788.66662597656
156.768548658349	1788.33337402344
157.545852459702	1786.53332519531
158.323047126388	1782.96667480469
159.100132694662	1776.03332519531
159.877109200719	1780.16662597656
160.653976680759	1771.19995117188
161.430735170968	1770.90002441406
162.207384707527	1775.33337402344
162.98392532658	1768.96667480469
163.760357064266	1765.36669921875
164.536679956709	1769.13330078125
165.312894040019	1769.43334960938
166.08899935029	1768.03332519531
166.86499592361	1763.86669921875
167.64088379603	1764.19995117188
168.416663003602	1763.76672363281
169.19233358237	1762.23327636719
169.967895568343	1761.59997558594
170.743348997518	1761.53332519531
171.518693905903	1760.76672363281
172.293930329461	1759.26672363281
173.06905830415	1762.03332519531
173.844077865923	1762.09997558594
174.618989050701	1757.59997558594
175.393791894402	1759.36669921875
176.168486432918	1763.43334960938
176.943072702149	1761.43334960938
177.717550737943	1772.09997558594
178.491920576174	1772.69995117188
179.266182252671	1773.46667480469
180.040335803267	1784.26672363281
180.814381263757	1789.86669921875
181.58831866996	1791.33337402344
182.362148057631	1791.86669921875
183.135869462553	1787.03332519531
183.909482920467	1784
184.682988467117	1785.30004882813
185.456386138212	1785.96667480469
186.22967596947	1785.83337402344
187.002857996574	1785.09997558594
187.775932255208	1788.83337402344
188.548898781025	1791.86669921875
189.32175760968	1791.19995117188
190.094508776801	1797.93334960938
190.867152318005	1796.09997558594
191.639688268901	1802.80004882813
192.412116665058	1801.93334960938
193.184437542076	1796.19995117188
193.9566509355	1799.83337402344
194.728756880869	1789.90002441406
195.500755413713	1786.33337402344
196.272646569558	1782.96667480469
197.044430383894	1772.5
197.816106892204	1780.5
198.587676129964	1775.23327636719
199.359138132634	1782
200.130492935633	1770.19995117188
200.901740574413	1769.53332519531
201.672881084377	1770.5
202.443914500921	1774.56665039063
203.214840859416	1771.40002441406
203.985660195246	1771.40002441406
204.756372543762	1763.86669921875
205.526977940299	1770.36669921875
206.297476420174	1775.36669921875
207.067868018711	1772.66662597656
207.838152771188	1773.66662597656
208.608330712894	1774.03332519531
209.378401879107	1779.80004882813
210.148366305059	1774.43334960938
210.918224025992	1766.83337402344
211.687975077139	1768.46667480469
212.457619493685	1770.83337402344
213.227157310848	1770.13330078125
213.996588563789	1769.83337402344
214.76591328768	1763.16662597656
215.535131517664	1770.69995117188
216.304243288882	1769
217.073248636458	1771.86669921875
217.842147595492	1761.43334960938
218.610940201072	1765.03332519531
219.379626488284	1767
220.148206492193	1763.43334960938
220.91668024783	1761.66662597656
221.685047790247	1760
222.453309154456	1761.40002441406
223.221464375454	1757.46667480469
223.989513488251	1763.76672363281
224.75745652781	1762.43334960938
225.525293529093	1761.73327636719
226.293024527053	1759.63330078125
227.060649556623	1754.19995117188
227.828168652717	1757.33337402344
228.595581850241	1769.36669921875
229.362889184086	1761.83337402344
230.130090689128	1761.36669921875
230.89718640023	1757.56665039063
231.664176352239	1758.26672363281
232.431060579987	1758.26672363281
233.197839118289	1754.40002441406
233.964512001954	1753.30004882813
234.731079265774	1751.43334960938
235.497540944521	1751.86669921875
236.263897072963	1748.5
237.030147685833	1744.19995117188
237.796292817881	1749.86669921875
238.562332503806	1746.96667480469
239.328266778331	1741.30004882813
240.094095676137	1743
240.859819231909	1744.56665039063
241.62543748029	1745.56665039063
242.390950455954	1747.5
243.156358193514	1744.96667480469
243.921660727599	1743.80004882813
244.68685809281	1749.69995117188
245.451950323743	1741.30004882813
246.216937454966	1740.43334960938
246.981819521049	1739.66662597656
247.746596556546	1740.93334960938
248.511268595976	1735.86669921875
249.275835673871	1745.19995117188
250.04029782473	1740.13330078125
250.804655083059	1741.46667480469
251.568907483323	1737.26672363281
252.333055059988	1740.66662597656
253.097097847503	1739.13330078125
253.861035880304	1741.36669921875
254.62486919282	1731.66662597656
255.388597819456	1735.33337402344
256.152221794596	1737.86669921875
256.91574115264	1731.09997558594
257.679155927928	1736.83337402344
258.442466154831	1734.16662597656
259.205671867672	1737.86669921875
259.968773100793	1731.90002441406
260.731769888482	1736.96667480469
261.494662265052	1736.40002441406
262.257450264777	1737.40002441406
263.020133921935	1735
263.782713270754	1734.40002441406
264.545188345504	1733.80004882813
265.307559180386	1735.80004882813
266.069825809631	1726.63330078125
266.831988267425	1729.93334960938
267.594046587959	1731.73327636719
268.356000805395	1728.83337402344
269.117850953891	1733.56665039063
269.879597067602	1731.13330078125
270.641239180637	1728.40002441406
271.402777327131	1728.36669921875
272.164211541161	1728.90002441406
272.925541856831	1728.73327636719
273.686768308211	1731.46667480469
274.44789092936	1729.56665039063
275.208909754314	1728.56665039063
275.969824817121	1731.59997558594
276.730636151784	1731.86669921875
277.491343792312	1733.69995117188
278.251947772692	1731.30004882813
279.012448126904	1730.40002441406
279.77284488891	1735.16662597656
280.533138092657	1728.90002441406
281.293327772081	1735
282.053413961105	1733.53332519531
282.813396693626	1730.80004882813
283.573276003551	1734
284.333051924748	1735.36669921875
285.092724491092	1733.33337402344
285.852293736427	1733.83337402344
286.611759694607	1742.36669921875
287.371122399433	1742.96667480469
288.13038188474	1738.86669921875
288.889538184304	1738.59997558594
289.648591331919	1736.69995117188
290.407541361362	1739.90002441406
291.166388306376	1736.56665039063
291.925132200712	1734.36669921875
292.683773078096	1736
293.44231097225	1731.16662597656
294.200745916861	1739.46667480469
294.959077945631	1736.26672363281
295.717307092225	1733.53332519531
296.475433390307	1735.59997558594
297.233456873527	1739.46667480469
297.991377575513	1740.09997558594
298.749195529897	1744.06665039063
299.506910770276	1742.13330078125
300.264523330243	1743.09997558594
301.022033243374	1745.43334960938
301.779440543239	1747.26672363281
302.536745263392	1742.46667480469
303.29394743736	1746.5
304.051047098689	1747.86669921875
304.808044280878	1752.56665039063
305.564939017422	1748.30004882813
306.321731341806	1752.26672363281
307.07842128751	1750.83337402344
307.835008887983	1752.43334960938
308.59149417667	1749.69995117188
309.347877187004	1747.46667480469
310.104157952396	1752.43334960938
310.860336506259	1749.19995117188
311.616412881976	1749.09997558594
312.372387112933	1752.23327636719
313.128259232476	1749.26672363281
313.88402927397	1747.63330078125
314.639697270744	1748.46667480469
315.395263256123	1753.86669921875
316.150727263413	1755.96667480469
316.906089325921	1746.56665039063
317.661349476911	1750.66662597656
318.416507749671	1755.36669921875
319.171564177441	1755.06665039063
319.926518793482	1755.63330078125
320.681371630998	1753.63330078125
321.436122723229	1751.66662597656
322.19077210336	1751.53332519531
322.945319804596	1752.53332519531
323.699765860095	1758.09997558594
324.454110303027	1757.16662597656
325.208353166543	1755.86669921875
325.962494483781	1756.63330078125
326.716534287853	1754.96667480469
327.470472611881	1747.19995117188
328.224309488948	1750.43334960938
328.97804495215	1753.5
329.73167903455	1745.16662597656
330.485211769199	1752.19995117188
331.238643189142	1750.36669921875
331.99197332741	1753.06665039063
332.745202217023	1753.59997558594
333.498329890974	1757
334.251356382268	1761.86669921875
335.00428172386	1757.66662597656
335.757105948733	1760.76672363281
336.509829089831	1755.23327636719
337.262451180083	1759.03332519531
338.01497225242	1757.80004882813
338.767392339755	1759.73327636719
339.519711474974	1756.33337402344
340.271929690979	1767.03332519531
341.024047020618	1762.40002441406
341.776063496779	1766.76672363281
342.527979152272	1765.93334960938
343.279794019952	1766.73327636719
344.031508132625	1761.86669921875
344.783121523104	1768.46667480469
345.534634224173	1767.36669921875
346.286046268628	1768.93334960938
347.03735768921	1775.36669921875
347.788568518696	1768.59997558594
348.53967878981	1770.76672363281
349.29068853528	1772.59997558594
350.041597787827	1774.13330078125
350.79240658014	1778.23327636719
351.543114944923	1773.90002441406
352.293722914834	1781.16662597656
353.044230522551	1776.30004882813
353.794637800701	1780.19995117188
354.544944781933	1779.03332519531
355.295151498867	1780.19995117188
356.045257984108	1787.46667480469
356.795264270262	1786.30004882813
357.545170389901	1788.66662597656
358.294976375607	1794.59997558594
359.044682259922	1793.46667480469
359.794288075399	1796
360.54379385457	1793.30004882813
361.293199629947	1793.30004882813
362.04250543405	1804.76672363281
362.79171129935	1803.53332519531
363.540817258351	1801.33337402344
364.289823343495	1813.83337402344
365.03872958725	1807.90002441406
365.787536022048	1821.5
366.536242680329	1827.13330078125
367.284849594499	1826.59997558594
368.033356796962	1827.46667480469
368.781764320094	1842.09997558594
369.530072196302	1845.66662597656
370.278280457919	1851.80004882813
371.026389137312	1861.69995117188
371.774398266814	1877.53332519531
372.522307878752	1886.26672363281
373.270118005429	1900.80004882813
374.017828679145	1914.80004882813
374.765439932199	1930.76672363281
375.512951796856	1960.36669921875
376.260364305385	1986.63330078125
377.007677490008	2014.13330078125
377.754891382986	2062.46655273438
378.502006016533	2115.7666015625
379.249021422861	2180.10009765625
379.995937634157	2241.93334960938
380.742754682616	2356.30004882813
381.489472600403	2493.60009765625
382.236091419679	2801.7666015625
382.982611172583	3433.2333984375
383.729031891253	4603.2998046875
384.475353607811	6138.86669921875
385.221576354359	6978.60009765625
385.967700162992	6314.7998046875
386.713725065802	4789.466796875
387.459651094842	3422.93334960938
388.205478282181	2638.13330078125
388.951206659853	2265.36669921875
389.696836259896	2103.83325195313
390.442367114332	2028.33337402344
391.18779925515	1992.5
391.933132714366	1977.03332519531
392.678367523939	1970.09997558594
393.423503715858	1963.13330078125
394.168541322056	1961.23327636719
394.913480374495	1970.09997558594
395.658320905081	1981.83337402344
396.403062945756	2002.5
397.147706528413	2020.46667480469
397.89225168494	2058.93334960938
398.636698447223	2095.2666015625
399.381046847131	2152.53344726563
400.125296916507	2190.89990234375
400.869448687208	2260.10009765625
401.613502191047	2341.53344726563
402.357457459854	2450.7333984375
403.101314525419	2596.93334960938
403.845073419553	2754.53344726563
404.588734174014	2997.2333984375
405.332296820579	3321.63330078125
406.075761390996	3828.56665039063
406.819127917025	4558.06689453125
407.562396430365	5566.966796875
408.305566962747	6655.2666015625
409.048639545884	7337.533203125
409.79161421145	7184.16650390625
410.534490991132	6263
411.277269916601	5079.63330078125
412.019951019504	4087.69995117188
412.762534331484	3419.69995117188
413.505019884163	2973.13330078125
414.247407709166	2702.30004882813
414.989697838098	2515.63330078125
415.731890302547	2388.46655273438
416.473985134093	2288.36669921875
417.215982364291	2223.03344726563
417.957882024722	2160.63330078125
418.699684146901	2113.7333984375
419.44138876237	2088.30004882813
420.182995902647	2060.06665039063
420.92450559923	2044.43334960938
421.665917883614	2024.86669921875
422.407232787286	2011.23327636719
423.1484503417	1999.5
423.889570578319	1995.90002441406
424.630593528589	1981.43334960938
425.371519223938	1974.06665039063
426.112347695776	1958.69995117188
426.853078975517	1955.5
427.593713094549	1949.26672363281
428.33425008426	1945.80004882813
429.074689976016	1939.66662597656
429.815032801174	1937.19995117188
430.555278591075	1939.5
431.295427377053	1936.66662597656
432.035479190425	1939.06665039063
432.775434062504	1932.13330078125
433.515292024581	1938.43334960938
434.255053107939	1928.13330078125
434.994717343853	1940.13330078125
435.734284763569	1944.73327636719
436.473755398347	1944.83337402344
437.213129279415	1948.36669921875
437.952406437988	1957
438.691586905289	1959.59997558594
439.430670712505	1967.73327636719
440.169657890821	1971.46667480469
440.908548471419	1971.69995117188
441.647342485448	1979.93334960938
442.386039964063	1983.69995117188
443.124640938399	1980.13330078125
443.863145439578	2001.66662597656
444.601553498714	2003.40002441406
445.339865146909	2018.46667480469
446.078080415243	2028.09997558594
446.816199334798	2040.03332519531
447.55422193663	2049.53344726563
448.292148251798	2059.30004882813
449.029978311342	2076.5
449.767712146277	2092.60009765625
450.505349787637	2104.66674804688
451.242891266397	2109.16674804688
451.980336613571	2120.43334960938
452.717685860128	2122.46655273438
453.454939037037	2134.16674804688
454.192096175247	2116.2333984375
454.929157305714	2099.30004882813
455.666122459351	2088.66674804688
456.402991667088	2072.43334960938
457.139764959817	2046.13330078125
457.87644236845	2037.40002441406
458.613023923856	2033.63330078125
459.349509656917	2020.33337402344
460.085899598469	2005.19995117188
460.822193779379	2003.53332519531
461.55839223047	1985.5
462.294494982574	1991.16662597656
463.030502066492	1986.96667480469
463.766413513017	1965.16662597656
464.502229352947	1947.19995117188
465.237949617054	1947.43334960938
465.97357433608	1931.90002441406
466.709103540808	1920.93334960938
467.444537261952	1907.83337402344
468.179875530237	1883.93334960938
468.915118376397	1874.53332519531
469.650265831115	1850.66662597656
470.385317925091	1848.63330078125
471.120274689003	1827.66662597656
471.855136153509	1817.56665039063
472.589902349272	1803.83337402344
473.32457330693	1776.83337402344
474.059149057119	1776.56665039063
474.79362963045	1762.66662597656
475.528015057532	1746.93334960938
476.262305368964	1742.53332519531
476.996500595326	1739.90002441406
477.730600767187	1736.83337402344
478.464605915109	1730.46667480469
479.198516069647	1728
479.932331261319	1728.96667480469
480.666051520664	1725.30004882813
481.399676878186	1724.03332519531
482.133207364394	1724.43334960938
482.866643009762	1723.16662597656
483.599983844782	1726.53332519531
484.333229899901	1719.69995117188
485.066381205595	1721.80004882813
485.799437792281	1725.23327636719
486.532399690403	1721.43334960938
487.265266930378	1719
487.99803954261	1719.83337402344
488.730717557487	1720.23327636719
489.463301005397	1723.03332519531
490.195789916709	1723.96667480469
490.928184321792	1726.19995117188
491.660484250967	1723.66662597656
492.392689734594	1721.69995117188
493.124800802986	1729.03332519531
493.856817486452	1728.43334960938
494.58873981531	1726.93334960938
495.320567819823	1730.66662597656
496.052301530289	1729.09997558594
496.783940976952	1734.26672363281
497.515486190092	1730.73327636719
498.246937199921	1728.56665039063
498.978294036689	1731.80004882813
499.709556730602	1737.96667480469
500.440725311885	1739.36669921875
501.171799810713	1734.26672363281
501.902780257284	1742.36669921875
502.633666681754	1745.33337402344
503.364459114302	1747.19995117188
504.095157585053	1750.53332519531
504.825762124168	1750.5
505.556272761754	1754.09997558594
506.286689527934	1757
507.017012452811	1766.16662597656
507.747241566469	1772.96667480469
508.477376898986	1778.53332519531
509.207418480438	1785.23327636719
509.937366340876	1796.66662597656
510.667220510335	1809.03332519531
511.396981018857	1819.5
512.126647896458	1844.40002441406
512.856221173163	1861.73327636719
513.585700878942	1878.76672363281
514.315087043803	1914.96667480469
515.044379697715	1937.40002441406
515.773578870639	1983.73327636719
516.502684592527	2034.09997558594
517.231696893324	2098.30004882813
517.960615802948	2168.89990234375
518.689441351322	2248.89990234375
519.418173568352	2353.30004882813
520.146812483938	2422.39990234375
520.875358127946	2503.03344726563
521.603810530268	2556.03344726563
522.332169720741	2572.7333984375
523.060435729237	2546.06665039063
523.788608585567	2527.43334960938
524.516688319583	2467.39990234375
525.244674961073	2407.39990234375
525.97256853986	2338.19995117188
526.700369085727	2293.80004882813
527.428076628453	2235.5
528.155691197806	2189.5
528.88321282354	2137
529.610641535404	2113.93334960938
530.337977363139	2071.2666015625
531.065220336448	2053.2333984375
531.792370485059	2022.73327636719
532.51942783867	2002.13330078125
533.246392426952	1980.09997558594
533.973264279613	1964.53332519531
534.700043426288	1942
535.426729896655	1938.30004882813
536.153323720336	1913.86669921875
536.879824926969	1905.30004882813
537.606233546188	1899.90002441406
538.332549607593	1887.76672363281
539.058773140773	1885
539.784904175324	1876.16662597656
540.510942740812	1878.93334960938
541.236888866812	1862.36669921875
541.962742582867	1859.23327636719
542.688503918518	1855.80004882813
543.414172903305	1850.30004882813
544.139749566731	1853
544.865233938318	1842.5
545.59062604755	1840.46667480469
546.315925923922	1834.36669921875
547.041133596897	1834.13330078125
547.766249095948	1834.96667480469
548.491272450518	1836.73327636719
549.216203690043	1830.86669921875
549.941042843959	1835.30004882813
550.665789941684	1830.09997558594
551.390445012612	1834.46667480469
552.115008086147	1828.66662597656
552.839479191678	1831.73327636719
553.563858358566	1832.06665039063
554.288145616178	1832.26672363281
555.012340993857	1831.53332519531
555.736444520946	1828.90002441406
556.460456226776	1831.46667480469
557.184376140661	1833.93334960938
557.908204291912	1841.56665039063
558.63194070981	1841.26672363281
559.355585423641	1844.90002441406
560.079138462681	1841.73327636719
560.802599856191	1847.5
561.525969633418	1846.30004882813
562.249247823596	1848.5
562.972434455954	1851.03332519531
563.695529559719	1856.16662597656
564.418533164078	1858.06665039063
565.14144529824	1856.46667480469
565.864265991379	1866.03332519531
566.586995272669	1867.30004882813
567.309633171277	1873.13330078125
568.032179716338	1873.83337402344
568.754634937001	1882.59997558594
569.476998862388	1889.43334960938
570.19927152162	1890.69995117188
570.921452943799	1897.73327636719
571.643543158016	1892.93334960938
572.36554219336	1888.93334960938
573.087450078895	1882.76672363281
573.809266843695	1882.90002441406
574.530992516797	1861.63330078125
575.252627127239	1859.46667480469
575.974170704067	1857.86669921875
576.695623276275	1848.46667480469
577.416984872882	1843.16662597656
578.138255522875	1847.76672363281
578.859435255253	1854.69995117188
579.580524098969	1848.33337402344
580.301522082995	1860.33337402344
581.022429236289	1851.43334960938
581.743245587771	1850.13330078125
582.463971166388	1855.80004882813
583.184606001047	1862.06665039063
583.905150120664	1860.19995117188
584.625603554127	1856.16662597656
585.34596633033	1860.63330078125
586.066238478129	1868.23327636719
586.786420026421	1866.26672363281
587.506511004016	1863.46667480469
588.226511439786	1881.63330078125
588.946421362547	1872.93334960938
589.666240801135	1885.66662597656
590.385969784333	1875.16662597656
591.105608340966	1886.69995117188
591.825156499789	1886.33337402344
592.544614289615	1880.86669921875
593.263981739181	1891.53332519531
593.983258877254	1887.5
594.702445732576	1888.16662597656
595.421542333874	1891.5
596.140548709874	1900.76672363281
596.859464889292	1905.16662597656
597.578290900819	1902.33337402344
598.297026773147	1901.96667480469
599.01567253495	1908.06665039063
599.734228214907	1903.26672363281
600.452693841658	1888.23327636719
601.171069443876	1883.63330078125
601.889355050169	1882.36669921875
602.607550689164	1855.03332519531
603.325656389494	1839.83337402344
604.043672179739	1827.66662597656
604.761598088507	1819.19995117188
605.479434144369	1806.93334960938
606.197180375904	1804.80004882813
606.914836811665	1798.73327636719
607.632403480208	1789.26672363281
608.349880410053	1793.40002441406
609.067267629757	1784.19995117188
609.784565167799	1791.09997558594
610.50177305272	1783.59997558594
611.218891312991	1786.93334960938
611.935919977112	1787.23327636719
612.652859073553	1792.5
613.369708630773	1791.16662597656
614.086468677222	1791.06665039063
614.803139241348	1793.43334960938
615.519720351572	1799.16662597656
616.236212036331	1794.69995117188
616.952614324014	1801.40002441406
617.668927243039	1800.06665039063
618.385150821779	1803.09997558594
619.101285088619	1809.90002441406
619.817330071927	1801.76672363281
620.53328580005	1804.63330078125
621.249152301349	1804.73327636719
621.964929604144	1805.16662597656
622.680617736767	1799.96667480469
623.396216727521	1810.66662597656
624.111726604722	1800.86669921875
624.827147396658	1803.43334960938
625.542479131611	1802.69995117188
626.257721837851	1804.5
626.972875543643	1799.09997558594
627.687940277219	1809
628.40291606684	1810.30004882813
629.117802940721	1807.46667480469
629.832600927097	1799.76672363281
630.547310054154	1806.80004882813
631.261930350103	1805.86669921875
631.976461843122	1801.46667480469
632.690904561388	1799.53332519531
633.405258533073	1800
634.119523786327	1801.83337402344
634.833700349299	1792.53332519531
635.547788250108	1793.86669921875
636.261787516889	1793.66662597656
636.975698177757	1784.23327636719
637.689520260806	1788.83337402344
638.403253794135	1782.06665039063
639.116898805813	1787.40002441406
639.830455323923	1780.86669921875
640.543923376526	1776.56665039063
641.257302991654	1777.26672363281
641.97059419737	1774.66662597656
642.683797021684	1767.19995117188
643.396911492625	1761
644.109937638189	1763.03332519531
644.822875486383	1749.06665039063
645.535725065189	1745.86669921875
646.24848640259	1746.63330078125
646.961159526541	1735.53332519531
647.673744465009	1735.96667480469
648.386241245922	1727.80004882813
649.098649897237	1731.03332519531
649.810970446856	1721.96667480469
650.523202922707	1718.46667480469
651.235347352688	1719.40002441406
651.947403764692	1718.03332519531
652.6593721866	1718.40002441406
653.37125264629	1722.36669921875
654.083045171609	1714.19995117188
654.79474979043	1714.26672363281
655.506366530575	1715.43334960938
656.217895419889	1716.5
656.929336486172	1714.76672363281
657.640689757255	1717.33337402344
658.351955260922	1716.56665039063
659.063133024971	1708.83337402344
659.774223077175	1712.83337402344
660.485225445308	1714.5
661.196140157123	1711.16662597656
661.906967240365	1710.09997558594
662.617706722782	1708.13330078125
663.328358632091	1710.13330078125
664.038922996016	1709.03332519531
664.749399842249	1707.80004882813
665.459789198507	1710.40002441406
666.170091092458	1711.83337402344
666.880305551784	1712.26672363281
667.590432604155	1711.33337402344
668.300472277216	1715.03332519531
669.01042459862	1716.83337402344
669.720289595993	1714.5
670.430067296964	1718.56665039063
671.139757729146	1715.43334960938
671.849360920142	1718.13330078125
672.558876897549	1714.36669921875
673.268305688942	1722.43334960938
673.977647321902	1713.63330078125
674.686901823982	1719.73327636719
675.396069222745	1726.33337402344
676.105149545725	1723.96667480469
676.81414282046	1721
677.523049074465	1717.30004882813
678.231868335251	1720.40002441406
678.940600630328	1721.56665039063
679.649245987172	1719.83337402344
680.35780443329	1715.26672363281
681.066275996125	1715.59997558594
681.77466070315	1718.93334960938
682.482958581809	1718.90002441406
683.191169659556	1713.09997558594
683.899293963803	1712.59997558594
684.60733152198	1711.93334960938
685.315282361489	1714.43334960938
686.023146509742	1710.90002441406
686.730923994122	1716.63330078125
687.438614841998	1712.09997558594
688.146219080748	1712.06665039063
688.853736737737	1711.09997558594
689.561167840308	1706.09997558594
690.268512415792	1712.86669921875
690.975770491533	1707.26672363281
691.682942094835	1707.13330078125
692.390027253004	1713.16662597656
693.097025993363	1709.16662597656
693.803938343168	1709.5
694.510764329722	1709.46667480469
695.217503980276	1713.19995117188
695.9241573221	1713.33337402344
696.63072438243	1715.83337402344
697.337205188513	1720.30004882813
698.043599767579	1717.90002441406
698.749908146834	1718.03332519531
699.456130353494	1726.80004882813
700.162266414748	1722.33337402344
700.868316357798	1723.09997558594
701.574280209806	1729.43334960938
702.280157997948	1730.73327636719
702.985949749382	1736.46667480469
703.691655491252	1731.09997558594
704.397275250694	1729.86669921875
705.102809054837	1732.96667480469
705.808256930795	1734.53332519531
706.513618905686	1732.93334960938
707.218895006592	1732.93334960938
707.924085260618	1735.26672363281
708.629189694824	1726.90002441406
709.334208336292	1723.16662597656
710.039141212057	1727.23327636719
710.743988349195	1731.30004882813
711.448749774726	1719.76672363281
712.153425515681	1724.80004882813
712.858015599075	1721.63330078125
713.562520051922	1723.03332519531
714.266938901217	1713.33337402344
714.971272173936	1716.96667480469
715.675519897077	1716.43334960938
716.379682097595	1716.40002441406
717.083758802453	1723.66662597656
717.787750038595	1717.19995117188
718.491655832963	1715.40002441406
719.195476212478	1719.06665039063
719.899211204065	1723.69995117188
720.602860834625	1723.59997558594
721.306425131073	1734.33337402344
722.009904120281	1732.13330078125
722.713297829139	1737
723.416606284497	1744
724.119829513234	1739.33337402344
724.822967542194	1739.19995117188
725.526020398215	1743.63330078125
726.228988108123	1744.06665039063
726.931870698739	1738.19995117188
727.63466819687	1731.36669921875
728.337380629327	1734.06665039063
729.040008022882	1735.26672363281
729.742550404337	1736.53332519531
730.445007800446	1738.46667480469
731.147380237972	1731.83337402344
731.84966774367	1738.90002441406
732.551870344277	1741.06665039063
733.253988066531	1737.83337402344
733.956020937138	1741.36669921875
734.65796898283	1750
735.359832230293	1746.43334960938
736.061610706225	1748.09997558594
736.763304437305	1755.30004882813
737.464913450207	1755.40002441406
738.166437771599	1750.69995117188
738.867877428125	1761.86669921875
739.569232446433	1760.16662597656
740.270502853152	1766.46667480469
740.971688674921	1765.06665039063
741.672789938327	1771
742.373806669988	1779.33337402344
743.074738896511	1777.36669921875
743.775586644459	1773.86669921875
744.476349940422	1781.09997558594
745.17702881095	1784.06665039063
745.877623282621	1787.76672363281
746.578133381957	1794.80004882813
747.278559135505	1794.5
747.978900569793	1791.19995117188
748.679157711339	1798.63330078125
749.379330586641	1801.69995117188
750.0794192222	1799.69995117188
750.779423644508	1801.33337402344
751.479343880037	1802.59997558594
752.179179955261	1809.80004882813
752.878931896634	1805.83337402344
753.578599730608	1805.09997558594
754.278183483618	1806.69995117188
754.977683182097	1805.93334960938
755.677098852465	1809.09997558594
756.376430521131	1807.59997558594
757.07567821449	1799.26672363281
757.774841958949	1793.09997558594
758.473921780873	1803.40002441406
759.172917706636	1794.63330078125
759.871829762612	1793.36669921875
760.570657975148	1790.36669921875
761.269402370572	1791.80004882813
761.96806297524	1783.5
762.66663981546	1783.59997558594
763.365132917561	1772.63330078125
764.063542307824	1781.09997558594
764.761868012567	1770.46667480469
765.460110058069	1774
766.158268470599	1766.19995117188
766.856343276424	1760.90002441406
767.55433450181	1752.40002441406
768.252242172994	1750.90002441406
768.950066316215	1742.93334960938
769.64780695771	1735.19995117188
770.345464123687	1728.13330078125
771.043037840361	1727.26672363281
771.740528133929	1722.76672363281
772.437935030586	1726.93334960938
773.1352585565	1727.13330078125
773.832498737855	1729.73327636719
774.529655600803	1730.06665039063
775.226729171507	1732.23327636719
775.923719476093	1735.59997558594
776.62062654071	1745.73327636719
777.317450391468	1748.16662597656
778.014191054486	1752.43334960938
778.710848555868	1762.59997558594
779.407422921714	1758.19995117188
780.103914178108	1762.86669921875
780.800322351114	1765.96667480469
781.496647466815	1770.86669921875
782.192889551254	1767.33337402344
782.889048630491	1764.53332519531
783.585124730549	1764.76672363281
784.281117877468	1761.06665039063
784.977028097273	1759.86669921875
785.672855415956	1759.69995117188
786.368599859532	1757.19995117188
787.064261453981	1756.5
787.759840225299	1751.73327636719
788.455336199433	1742.19995117188
789.150749402372	1749.80004882813
789.84607986005	1739.80004882813
790.541327598425	1739.23327636719
791.236492643427	1734.80004882813
791.931575020975	1733.46667480469
792.62657475699	1730.90002441406
793.321491877375	1728.66662597656
794.016326408036	1722.40002441406
794.711078374848	1716.69995117188
795.405747803693	1718
796.100334720443	1716.19995117188
796.794839150954	1716.30004882813
797.489261121072	1716.59997558594
798.183600656654	1710.56665039063
798.877857783511	1713.16662597656
799.57203252748	1711.40002441406
800.266124914366	1713
800.960134969973	1710.90002441406
801.654062720095	1713.63330078125
802.347908190512	1709.59997558594
803.041671407007	1717.13330078125
803.735352395342	1714.30004882813
804.428951181284	1710.63330078125
805.12246779056	1715.46667480469
805.815902248922	1715.83337402344
806.509254582093	1715.26672363281
807.202524815801	1716
807.895712975749	1720.03332519531
808.58881908764	1718.03332519531
809.281843177157	1718.96667480469
809.974785270003	1719.86669921875
810.667645391826	1723.23327636719
811.360423568309	1726.33337402344
812.053119825096	1724.5
812.745734187831	1723.69995117188
813.438266682161	1731.86669921875
814.130717333705	1731.33337402344
814.823086168076	1726.36669921875
815.515373210889	1731.23327636719
816.207578487748	1739.53332519531
816.899702024235	1736.66662597656
817.591743845928	1739.86669921875
818.283703978398	1741.5
818.975582447225	1743.19995117188
819.667379277938	1740.33337402344
820.35909449609	1742.16662597656
821.050728127216	1748.36669921875
821.742280196848	1748.96667480469
822.433750730493	1746.09997558594
823.125139753662	1745.76672363281
823.816447291855	1739.5
824.507673370549	1738.19995117188
825.198818015231	1734.59997558594
825.889881251374	1735.46667480469
826.580863104442	1733.90002441406
827.271763599872	1735.16662597656
827.962582763119	1731.19995117188
828.653320619618	1726.13330078125
829.343977194791	1720.69995117188
830.034552514045	1723.93334960938
830.72504660279	1715.33337402344
831.415459486432	1713.76672363281
832.105791190354	1708.56665039063
832.79604173993	1705
833.486211160532	1704.56665039063
834.17629947752	1703.90002441406
834.866306716248	1702.96667480469
835.556232902058	1697.13330078125
836.246078060281	1699.46667480469
836.935842216239	1695.30004882813
837.625525395254	1697.40002441406
838.315127622627	1697.46667480469
839.004648923652	1696.90002441406
839.694089323628	1696.80004882813
840.383448847822	1695
841.072727521511	1694.83337402344
841.761925369946	1691.59997558594
842.451042418394	1698.13330078125
843.140078692075	1697.06665039063
843.829034216243	1692.96667480469
844.517909016119	1696.46667480469
845.206703116904	1692
845.895416543824	1690.63330078125
846.584049322062	1692.19995117188
847.272601476817	1692.26672363281
847.961073033249	1696.03332519531
848.649464016547	1693.19995117188
849.337774451864	1695.5
850.026004364355	1694.16662597656
850.714153779165	1694.66662597656
851.402222721422	1687.66662597656
852.090211216251	1692
852.778119288776	1691.59997558594
853.4659469641	1694.40002441406
854.153694267314	1693.66662597656
854.841361223513	1692.43334960938
855.528947857783	1695.13330078125
856.216454195189	1695.16662597656
856.903880260794	1696.83337402344
857.591226079641	1691.36669921875
858.27849167679	1692.69995117188
858.965677077272	1694.19995117188
859.652782306111	1691.30004882813
860.339807388328	1690.59997558594
861.026752348915	1693.26672363281
861.713617212895	1693.56665039063
862.400402005248	1694.96667480469
863.087106750952	1693.86669921875
863.773731474988	1692.90002441406
864.460276202314	1693.76672363281
865.146740957882	1692.53332519531
865.833125766649	1691.13330078125
866.519430653541	1690.43334960938
867.205655643482	1689.36669921875
867.891800761413	1692.5
868.577866032225	1683.90002441406
869.263851480817	1689.30004882813
869.949757132104	1689.59997558594
870.635583010948	1688.13330078125
871.321329142234	1692.5
872.00699555082	1687.76672363281
872.692582261571	1689.76672363281
873.37808929933	1685.90002441406
874.063516688943	1686.16662597656
874.748864455231	1684.23327636719
875.434132623022	1685.73327636719
876.119321217122	1683.66662597656
876.80443026235	1688.26672363281
877.489459783479	1684.19995117188
878.174409805313	1685.06665039063
878.859280352625	1683.90002441406
879.544071450178	1685.66662597656
880.228783122741	1687.26672363281
880.913415395058	1681.66662597656
881.597968291876	1684.53332519531
882.282441837917	1684.06665039063
882.966836057924	1682.06665039063
883.651150976588	1683.23327636719
884.335386618638	1687.76672363281
885.019543008762	1685.19995117188
885.703620171653	1682.76672363281
886.387618131987	1684.5
887.071536914444	1682.09997558594
887.755376543681	1687.69995117188
888.439137044354	1684.80004882813
889.122818441092	1685.30004882813
889.806420758563	1685.30004882813
890.489944021374	1683.93334960938
891.17338825415	1682.80004882813
891.856753481496	1685.16662597656
892.540039728018	1684.43334960938
893.223247018304	1685.5
893.906375376951	1684.96667480469
894.589424828519	1690.13330078125
895.272395397583	1684.90002441406
895.9552871087	1682.80004882813
896.638099986421	1686.03332519531
897.32083405528	1686.73327636719
898.003489339815	1685.06665039063
898.686065864547	1688.90002441406
899.368563653989	1687.53332519531
900.05098273265	1685.03332519531
900.73332312502	1681.46667480469
901.415584855594	1685.76672363281
902.09776794885	1685.26672363281
902.779872429265	1686.36669921875
903.461898321282	1686.93334960938
904.143845649382	1684.66662597656
904.825714437982	1680.66662597656
905.507504711537	1684.69995117188
906.189216494465	1682.06665039063
906.870849811185	1685
907.55240468612	1681.36669921875
908.23388114366	1683.43334960938
908.915279208196	1683.66662597656
909.596598904118	1678.76672363281
910.277840255801	1686.43334960938
910.959003287608	1681.40002441406
911.640088023892	1681.33337402344
912.32109448903	1687.53332519531
913.002022707327	1687.76672363281
913.682872703143	1688.06665039063
914.363644500786	1685.03332519531
915.044338124572	1685.36669921875
915.724953598816	1682.09997558594
916.405490947812	1683.09997558594
917.08595019585	1685.76672363281
917.766331367211	1688
918.446634486172	1684.59997558594
919.126859576979	1683.36669921875
919.807006663897	1684.13330078125
920.487075771186	1684.59997558594
921.167066923067	1687.13330078125
921.846980143778	1686.16662597656
922.526815457533	1687
923.206572888542	1684.33337402344
923.886252461025	1685.69995117188
924.565854199158	1685.59997558594
925.245378127137	1686.33337402344
925.924824269132	1686.30004882813
926.604192649339	1691.86669921875
927.28348329188	1692.23327636719
927.962696220933	1689.03332519531
928.641831460637	1688.56665039063
929.320889035124	1689.06665039063
929.999868968515	1686.13330078125
930.678771284941	1688.36669921875
931.357596008509	1693.69995117188
932.036343163312	1701.59997558594
932.715012773449	1692.30004882813
933.393604863005	1693.90002441406
934.072119456057	1704.23327636719
934.750556576661	1707.76672363281
935.428916248893	1708.36669921875
936.107198496784	1704.53332519531
936.785403344392	1704.33337402344
937.463530815739	1712.86669921875
938.141580934859	1710.83337402344
938.819553725761	1713.66662597656
939.497449212455	1715.90002441406
940.175267418943	1723.96667480469
940.853008369217	1719.06665039063
941.530672087252	1723.63330078125
942.208258597034	1723.66662597656
942.88576792251	1723.23327636719
943.563200087657	1727.63330078125
944.240555116409	1729.5
944.917833032714	1725.66662597656
945.595033860499	1727.73327636719
946.2721576237	1726.16662597656
946.949204346208	1725.30004882813
947.626174051953	1732.73327636719
948.30306676482	1726.23327636719
948.979882508703	1725.40002441406
949.656621307485	1725.13330078125
950.333283185039	1723.63330078125
951.009868165216	1724.46667480469
951.686376271891	1726.06665039063
952.362807528901	1722.66662597656
953.03916196009	1725.86669921875
953.715439589288	1731.90002441406
954.391640440314	1727.63330078125
955.067764536986	1727.46667480469
955.74381190311	1731.40002441406
956.419782562481	1724.66662597656
957.095676538886	1729.96667480469
957.771493856112	1722.46667480469
958.447234537921	1731.26672363281
959.122898608092	1727.19995117188
959.798486090369	1728.26672363281
960.473997008503	1728.40002441406
961.149431386226	1729.53332519531
961.824789247285	1727.33337402344
962.500070615388	1727.56665039063
963.175275514248	1726.76672363281
963.850403967579	1725.03332519531
964.525455999079	1731.16662597656
965.200431632428	1726.19995117188
965.875330891311	1732.09997558594
966.550153799403	1730.69995117188
967.224900380363	1732.73327636719
967.899570657855	1733.46667480469
968.574164655517	1734.46667480469
969.24868239699	1731.40002441406
969.923123905908	1733.43334960938
970.597489205892	1729
971.27177832055	1730.90002441406
971.945991273505	1728.09997558594
972.620128088335	1730
973.29418878864	1738.03332519531
973.968173398004	1731
974.642081939996	1729.40002441406
975.315914438171	1733.73327636719
975.989670916094	1730.26672363281
976.663351397316	1736.53332519531
977.336955905378	1729.46667480469
978.010484463804	1731.69995117188
978.683937096118	1736.09997558594
979.357313825837	1732.86669921875
980.030614676472	1732.23327636719
980.703839671514	1734.30004882813
981.376988834455	1732.76672363281
982.050062188785	1728.19995117188
982.723059757969	1733.06665039063
983.395981565477	1732.80004882813
984.068827634767	1729.19995117188
984.741597989282	1724.30004882813
985.414292652472	1727.5
986.086911647764	1724.5
986.759454998581	1725.86669921875
987.431922728346	1726.09997558594
988.10431486046	1727.43334960938
988.776631418332	1722.26672363281
989.448872425341	1724.30004882813
990.121037904883	1722.63330078125
990.793127880332	1718.73327636719
991.465142375048	1716.69995117188
992.137081412394	1717.86669921875
992.808945015717	1715.56665039063
993.48073320837	1711.56665039063
994.152446013679	1711.76672363281
994.824083454977	1705.13330078125
995.495645555577	1705.13330078125
996.167132338785	1707.83337402344
996.838543827912	1701.66662597656
997.509880046252	1700.69995117188
998.181141017087	1700.63330078125
998.852326763699	1698.76672363281
999.523437309342	1693.16662597656
1000.1944726773	1697.40002441406
1000.86543289081	1699.40002441406
1001.53631797312	1701.96667480469
1002.20712794747	1698.26672363281
1002.87786283709	1693.23327636719
1003.5485226652	1693.16662597656
1004.21910745501	1696.03332519531
1004.88961722973	1695.56665039063
1005.56005201255	1695.26672363281
1006.23041182666	1695.03332519531
1006.90069669524	1690.53332519531
1007.57090664147	1689.93334960938
1008.24104168851	1692.53332519531
1008.9111018595	1689.96667480469
1009.58108717761	1692.5
1010.25099766598	1693.63330078125
1010.92083334773	1687.93334960938
1011.59059424598	1687.09997558594
1012.26028038385	1693.09997558594
1012.92989178446	1691.06665039063
1013.59942847091	1686.16662597656
1014.26889046627	1686.80004882813
1014.93827779364	1685.69995117188
1015.60759047608	1687.33337402344
1016.27682853668	1681.76672363281
1016.94599199848	1684.16662597656
1017.61508088455	1684.76672363281
1018.28409521791	1680.63330078125
1018.95303502162	1684.06665039063
1019.62190031868	1679.46667480469
1020.29069113213	1677.80004882813
1020.95940748498	1681.96667480469
1021.62804940023	1682.03332519531
1022.29661690087	1681.86669921875
1022.96511000988	1677.63330078125
1023.63352875027	1676.59997558594
1024.30187314498	1678.80004882813
1024.97014321699	1676.46667480469
1025.63833898925	1675.90002441406
1026.3064604847	1676.59997558594
1026.9745077263	1676.59997558594
1027.64248073695	1675.16662597656
1028.3103795396	1675.19995117188
1028.97820415717	1678.36669921875
1029.64595461253	1679.73327636719
1030.31363092861	1674.46667480469
1030.9812331283	1674
1031.64876123448	1676
1032.31621527001	1677.30004882813
1032.98359525779	1673.19995117188
1033.65090122065	1672.76672363281
1034.31813318144	1672.93334960938
1034.98529116303	1675.56665039063
1035.65237518824	1674.13330078125
1036.3193852799	1677.76672363281
1036.98632146083	1671.66662597656
1037.65318375384	1676.96667480469
1038.31997218173	1675.09997558594
1038.98668676731	1675.46667480469
1039.65332753335	1674.43334960938
1040.31989450265	1671.26672363281
1040.98638769797	1675.30004882813
1041.65280714207	1672.5
1042.31915285773	1672.13330078125
1042.98542486766	1672.09997558594
1043.65162319464	1672.76672363281
1044.31774786138	1675.76672363281
1044.98379889061	1673.36669921875
1045.64977630505	1671.16662597656
1046.3156801274	1671.26672363281
1046.98151038038	1668.69995117188
1047.64726708667	1672.09997558594
1048.31295026895	1668.83337402344
1048.97855994991	1668.46667480469
1049.64409615221	1668.76672363281
1050.30955889852	1669.69995117188
1050.97494821149	1672.83337402344
1051.64026411378	1670.83337402344
1052.30550662801	1672.86669921875
1052.9706757768	1671.59997558594
1053.6357715828	1668.43334960938
1054.30079406862	1672.76672363281
1054.96574325686	1673.56665039063
1055.63061917012	1670.80004882813
1056.29542183099	1671.90002441406
1056.96015126205	1670.09997558594
1057.62480748589	1668.63330078125
1058.28939052507	1666.93334960938
1058.95390040214	1668.80004882813
1059.61833713967	1667
1060.28270076019	1668.76672363281
1060.94699128624	1670.69995117188
1061.61120874035	1667
1062.27535314506	1666.30004882813
1062.93942452285	1670.06665039063
1063.60342289624	1667.59997558594
1064.26734828774	1664.53332519531
1064.93120071982	1670
1065.59498021498	1669.66662597656
1066.25868679568	1667.63330078125
1066.92232048439	1665.90002441406
1067.58588130357	1665.53332519531
1068.24936927567	1663.40002441406
1068.91278442313	1668.43334960938
1069.5761267684	1668.46667480469
1070.23939633389	1671.06665039063
1070.90259314204	1669.93334960938
1071.56571721524	1669.03332519531
1072.22876857591	1668.73327636719
1072.89174724643	1666.56665039063
1073.55465324921	1668.73327636719
1074.21748660662	1666.73327636719
1074.88024734103	1667.96667480469
1075.54293547481	1668.19995117188
1076.20555103032	1671.43334960938
1076.86809402991	1664.33337402344
1077.53056449592	1666.69995117188
1078.19296245068	1665.76672363281
1078.85528791653	1667.26672363281
1079.51754091578	1666.90002441406
1080.17972147075	1668.76672363281
1080.84182960373	1664.90002441406
1081.50386533702	1669.86669921875
1082.16582869292	1667
1082.82771969371	1665.5
1083.48953836164	1666.56665039063
1084.151284719	1665.33337402344
1084.81295878805	1663.90002441406
1085.47456059102	1667.43334960938
1086.13609015016	1670.96667480469
1086.79754748771	1667.69995117188
1087.45893262589	1666.93334960938
1088.12024558693	1668.06665039063
1088.78148639303	1666.30004882813
1089.4426550664	1666.03332519531
1090.10375162923	1667.73327636719
1090.76477610373	1669.80004882813
1091.42572851205	1666.03332519531
1092.08660887639	1662.86669921875
1092.74741721889	1668.56665039063
1093.40815356173	1666.66662597656
1094.06881792706	1666.96667480469
1094.72941033701	1668.69995117188
1095.38993081372	1668.93334960938
1096.05037937931	1667.19995117188
1096.71075605592	1666.03332519531
1097.37106086565	1669
1098.03129383061	1666.96667480469
1098.69145497288	1667.59997558594
1099.35154431456	1667.90002441406
1100.01156187774	1670.06665039063
1100.6715076845	1668.13330078125
1101.33138175687	1664.09997558594
