 1.56725E+03
 1.56617E+03
 1.56680E+03
 1.56660E+03
 1.56685E+03
 1.56718E+03
 1.56642E+03
 1.56620E+03
 1.56708E+03
 1.56655E+03
 1.56688E+03
 1.56732E+03
 1.56565E+03
 1.56725E+03
 1.56690E+03
 1.56723E+03
 1.56708E+03
 1.56645E+03
 1.56635E+03
 1.56707E+03
 1.56720E+03
 1.56700E+03
 1.56682E+03
 1.56658E+03
 1.56610E+03
 1.56660E+03
 1.56685E+03
 1.56675E+03
 1.56782E+03
 1.56623E+03
 1.56695E+03
 1.56708E+03
 1.56687E+03
 1.56723E+03
 1.56662E+03
 1.56693E+03
 1.56600E+03
 1.56648E+03
 1.56750E+03
 1.56663E+03
 1.56678E+03
 1.56708E+03
 1.56627E+03
 1.56683E+03
 1.56693E+03
 1.56597E+03
 1.56653E+03
 1.56683E+03
 1.56712E+03
 1.56708E+03
 1.56778E+03
 1.56738E+03
 1.56875E+03
 1.56912E+03
 1.56855E+03
 1.57743E+03
 1.66463E+03
 2.22027E+03
 3.33617E+03
 3.17487E+03
 2.04495E+03
 1.62490E+03
 1.57335E+03
 1.56908E+03
 1.56770E+03
 1.56797E+03
 1.56715E+03
 1.56702E+03
 1.56658E+03
 1.56728E+03
 1.56748E+03
 1.56728E+03
 1.56738E+03
 1.56822E+03
 1.56772E+03
 1.56752E+03
 1.57002E+03
 1.57582E+03
 1.58792E+03
 1.61605E+03
 1.66573E+03
 1.72750E+03
 1.82867E+03
 1.94097E+03
 2.03362E+03
 2.10247E+03
 2.14407E+03
 2.15828E+03
 2.16710E+03
 2.18778E+03
 2.20103E+03
 2.22455E+03
 2.24422E+03
 2.26043E+03
 2.28103E+03
 2.29462E+03
 2.30138E+03
 2.31875E+03
 2.36937E+03
 2.43223E+03
 2.50262E+03
 2.56822E+03
 2.64000E+03
 2.70332E+03
 2.75860E+03
 2.80313E+03
 2.84467E+03
 2.91948E+03
 3.02423E+03
 3.05995E+03
 3.02062E+03
 2.95627E+03
 2.88577E+03
 2.83518E+03
 2.80412E+03
 2.77440E+03
 2.79460E+03
 2.83750E+03
 2.90903E+03
 2.95607E+03
 2.98915E+03
 3.02375E+03
 3.05662E+03
 3.01048E+03
 2.92158E+03
 2.84767E+03
 2.81330E+03
 2.79538E+03
 2.77842E+03
 2.76250E+03
 2.73897E+03
 2.72068E+03
 2.69883E+03
 2.67863E+03
 2.67468E+03
 2.64755E+03
 2.64153E+03
 2.63140E+03
 2.58480E+03
 2.56413E+03
 2.54883E+03
 2.52950E+03
 2.51640E+03
 2.50918E+03
 2.49082E+03
 2.47633E+03
 2.47127E+03
 2.46103E+03
 2.45463E+03
 2.44922E+03
 2.44310E+03
 2.43947E+03
 2.43363E+03
 2.43530E+03
 2.46573E+03
 2.53773E+03
 2.54798E+03
 2.50315E+03
 2.45917E+03
 2.47080E+03
 2.47213E+03
 2.48235E+03
 2.49777E+03
 2.51890E+03
 2.53277E+03
 2.56707E+03
 2.58425E+03
 2.59995E+03
 2.60453E+03
 2.61063E+03
 2.61457E+03
 2.63973E+03
 2.65472E+03
 2.68230E+03
 2.69588E+03
 2.71800E+03
 2.75687E+03
 2.77473E+03
 2.81618E+03
 2.84252E+03
 2.88293E+03
 2.93915E+03
 2.99653E+03
 3.11100E+03
 3.28543E+03
 3.61292E+03
 4.38072E+03
 6.60257E+03
 1.16923E+04
 1.60470E+04
 1.26970E+04
 6.75972E+03
 4.35755E+03
 3.96720E+03
 4.27695E+03
 5.32247E+03
 8.30695E+03
 1.47260E+04
 2.04096E+04
 1.71405E+04
 9.63547E+03
 5.68863E+03
 4.48837E+03
 4.11877E+03
 3.91192E+03
 3.76225E+03
 3.68943E+03
 3.68063E+03
 3.72673E+03
 3.79553E+03
 3.90855E+03
 4.03995E+03
 4.22847E+03
 4.32992E+03
 4.31033E+03
 4.18570E+03
 4.06432E+03
 3.98012E+03
 3.77845E+03
 3.46882E+03
 3.10242E+03
 2.77885E+03
 2.59565E+03
 2.48288E+03
 2.45530E+03
 2.44592E+03
 2.42993E+03
 2.43547E+03
 2.44155E+03
 2.44982E+03
 2.44892E+03
 2.45378E+03
 2.46738E+03
 2.48272E+03
 2.50015E+03
 2.53270E+03
 2.58042E+03
 2.72183E+03
 3.12978E+03
 3.94195E+03
 4.26550E+03
 3.62433E+03
 2.97295E+03
 2.75288E+03
 2.69273E+03
 2.67757E+03
 2.69142E+03
 2.71152E+03
 2.74883E+03
 2.79300E+03
 2.84878E+03
 2.91733E+03
 2.98733E+03
 3.06672E+03
 3.17348E+03
 3.24902E+03
 3.22535E+03
 3.12147E+03
 3.05103E+03
 3.03553E+03
 3.05952E+03
 3.10980E+03
 3.17920E+03
 3.24258E+03
 3.30450E+03
 3.31960E+03
 3.21663E+03
 3.04138E+03
 2.89307E+03
 2.80895E+03
 2.77312E+03
 2.75442E+03
 2.74950E+03
 2.71410E+03
 2.71612E+03
 2.70965E+03
 2.70557E+03
 2.70560E+03
 2.68818E+03
 2.67168E+03
 2.67073E+03
 2.62215E+03
 2.52955E+03
 2.43997E+03
 2.36217E+03
 2.32292E+03
 2.30592E+03
 2.28883E+03
 2.28428E+03
 2.28333E+03
 2.28505E+03
 2.30740E+03
 2.31518E+03
 2.32392E+03
 2.31105E+03
 2.31278E+03
 2.30202E+03
 2.29415E+03
 2.29022E+03
 2.29817E+03
 2.31402E+03
 2.36298E+03
 2.39712E+03
 2.43802E+03
 2.43827E+03
 2.44772E+03
 2.41567E+03
 2.39257E+03
 2.38750E+03
 2.40730E+03
 2.43880E+03
 2.46667E+03
 2.47800E+03
 2.49105E+03
 2.50688E+03
 2.53345E+03
 2.54742E+03
 2.58695E+03
 2.62665E+03
 2.68833E+03
 2.71468E+03
 2.75663E+03
 2.74250E+03
 2.70880E+03
 2.64875E+03
 2.58317E+03
 2.52030E+03
 2.44680E+03
 2.43167E+03
 2.47027E+03
 2.53253E+03
 2.57487E+03
 2.58118E+03
 2.54805E+03
 2.49413E+03
 2.44855E+03
 2.39258E+03
 2.34567E+03
 2.31977E+03
 2.31175E+03
 2.31013E+03
 2.32235E+03
 2.33655E+03
 2.35843E+03
 2.37828E+03
 2.39330E+03
 2.39795E+03
 2.38982E+03
 2.36442E+03
 2.32602E+03
 2.28332E+03
 2.24847E+03
 2.23008E+03
 2.20290E+03
 2.19667E+03
 2.19583E+03
 2.18217E+03
 2.18270E+03
 2.18302E+03
 2.18108E+03
 2.17165E+03
 2.17935E+03
 2.16958E+03
 2.16903E+03
 2.15202E+03
 2.15300E+03
 2.15315E+03
 2.14423E+03
 2.14390E+03
 2.13687E+03
 2.13817E+03
 2.13918E+03
 2.13723E+03
 2.14207E+03
 2.14315E+03
 2.14842E+03
 2.14318E+03
 2.13950E+03
 2.13765E+03
 2.14048E+03
 2.14418E+03
 2.14015E+03
 2.14292E+03
 2.13973E+03
 2.13957E+03
 2.13947E+03
 2.13870E+03
 2.14465E+03
 2.14685E+03
 2.14003E+03
 2.14793E+03
 2.15515E+03
 2.15667E+03
 2.17023E+03
 2.17657E+03
 2.18643E+03
 2.17938E+03
 2.18703E+03
 2.18960E+03
 2.18168E+03
 2.18412E+03
 2.19035E+03
 2.19660E+03
 2.19153E+03
 2.19207E+03
 2.19698E+03
 2.19048E+03
 2.19510E+03
 2.18568E+03
 2.18635E+03
 2.18183E+03
 2.18277E+03
 2.18292E+03
 2.17165E+03
 2.16610E+03
 2.15580E+03
 2.13917E+03
 2.14182E+03
 2.13185E+03
 2.12747E+03
 2.11567E+03
 2.11475E+03
 2.10430E+03
 2.10135E+03
 2.10172E+03
 2.09642E+03
 2.08957E+03
 2.08968E+03
 2.08663E+03
 2.08575E+03
 2.08168E+03
 2.07853E+03
 2.07767E+03
 2.07618E+03
 2.07390E+03
 2.07288E+03
 2.06543E+03
 2.06248E+03
 2.06952E+03
 2.06157E+03
 2.06400E+03
 2.06820E+03
 2.06493E+03
 2.06712E+03
 2.06413E+03
 2.06670E+03
 2.06558E+03
 2.06575E+03
 2.07022E+03
 2.06612E+03
 2.06292E+03
 2.06687E+03
 2.06667E+03
 2.07057E+03
 2.06762E+03
 2.06480E+03
 2.06472E+03
 2.06662E+03
 2.06438E+03
 2.06837E+03
 2.07185E+03
 2.07442E+03
 2.07008E+03
 2.07175E+03
 2.07478E+03
 2.06718E+03
 2.06765E+03
 2.07103E+03
 2.06717E+03
 2.07293E+03
 2.07050E+03
 2.06853E+03
 2.06958E+03
 2.07612E+03
 2.07783E+03
 2.07587E+03
 2.07175E+03
 2.07180E+03
 2.06843E+03
 2.06890E+03
 2.06518E+03
 2.06962E+03
 2.07378E+03
 2.07160E+03
 2.07455E+03
 2.07432E+03
 2.06405E+03
 2.07122E+03
 2.07327E+03
 2.07898E+03
 2.07935E+03
 2.07797E+03
 2.07352E+03
 2.07415E+03
 2.07030E+03
 2.06717E+03
 2.06902E+03
 2.07632E+03
 2.07067E+03
 2.08087E+03
 2.07913E+03
 2.07853E+03
 2.08123E+03
 2.07742E+03
 2.07800E+03
 2.08318E+03
 2.08472E+03
 2.08072E+03
 2.07915E+03
 2.08028E+03
 2.08448E+03
 2.07925E+03
 2.08012E+03
 2.08443E+03
 2.08320E+03
 2.08078E+03
 2.08677E+03
 2.08617E+03
 2.08338E+03
 2.08950E+03
 2.08078E+03
 2.08877E+03
 2.08758E+03
 2.08140E+03
 2.08917E+03
 2.08867E+03
 2.08565E+03
 2.08667E+03
 2.08592E+03
 2.08885E+03
 2.09303E+03
 2.09128E+03
 2.08348E+03
 2.09528E+03
 2.09435E+03
 2.09942E+03
 2.10170E+03
 2.10075E+03
 2.10922E+03
 2.10915E+03
 2.11080E+03
 2.10947E+03
 2.11410E+03
 2.11657E+03
 2.11028E+03
 2.11847E+03
 2.11860E+03
 2.11975E+03
 2.12990E+03
 2.12882E+03
 2.12005E+03
 2.11833E+03
 2.12720E+03
 2.12542E+03
 2.12528E+03
 2.12292E+03
 2.12680E+03
 2.12305E+03
 2.11632E+03
 2.12382E+03
 2.12313E+03
 2.11262E+03
 2.11797E+03
 2.11882E+03
 2.11210E+03
 2.11785E+03
 2.11187E+03
 2.11097E+03
 2.10823E+03
 2.10443E+03
 2.09887E+03
 2.10825E+03
 2.10123E+03
 2.10310E+03
 2.09923E+03
 2.09362E+03
 2.09752E+03
 2.09345E+03
 2.09147E+03
 2.09615E+03
 2.09478E+03
 2.09178E+03
 2.08818E+03
 2.09387E+03
 2.08968E+03
 2.08805E+03
 2.08967E+03
 2.08895E+03
 2.09070E+03
 2.09067E+03
 2.09102E+03
 2.09308E+03
 2.08812E+03
 2.08502E+03
 2.08560E+03
 2.08292E+03
 2.08240E+03
 2.07570E+03
 2.08632E+03
 2.08308E+03
 2.08015E+03
 2.08738E+03
 2.08240E+03
 2.09008E+03
 2.08882E+03
 2.09022E+03
 2.08668E+03
 2.09128E+03
 2.08007E+03
 2.08275E+03
 2.08395E+03
 2.08837E+03
 2.08278E+03
 2.09100E+03
 2.08615E+03
 2.08640E+03
 2.09422E+03
 2.08532E+03
 2.08535E+03
 2.08513E+03
 2.08907E+03
 2.08687E+03
 2.08520E+03
 2.09755E+03
 2.09092E+03
 2.09407E+03
 2.08532E+03
 2.09118E+03
 2.09662E+03
 2.09658E+03
 2.09283E+03
 2.10505E+03
 2.10073E+03
 2.10943E+03
 2.11075E+03
 2.11110E+03
 2.11938E+03
 2.11865E+03
 2.12637E+03
 2.12812E+03
 2.13013E+03
 2.13580E+03
 2.14382E+03
 2.15273E+03
 2.16090E+03
 2.15652E+03
 2.15797E+03
 2.16547E+03
 2.16867E+03
 2.16965E+03
 2.17363E+03
 2.16968E+03
 2.17370E+03
 2.17598E+03
 2.18678E+03
 2.17213E+03
 2.18480E+03
 2.17313E+03
 2.17128E+03
 2.15637E+03
 2.15853E+03
 2.15633E+03
 2.15240E+03
 2.14398E+03
 2.13247E+03
 2.12135E+03
 2.12367E+03
 2.12412E+03
 2.11858E+03
 2.11610E+03
 2.10612E+03
 2.10282E+03
 2.09812E+03
 2.09462E+03
 2.09687E+03
 2.09513E+03
 2.08672E+03
 2.08295E+03
 2.08517E+03
 2.08415E+03
 2.08392E+03
 2.09123E+03
 2.08675E+03
 2.07625E+03
 2.08473E+03
 2.07997E+03
 2.08497E+03
 2.08118E+03
 2.08455E+03
 2.08195E+03
 2.08202E+03
 2.08735E+03
 2.08240E+03
 2.08923E+03
 2.08495E+03
 2.08337E+03
 2.08135E+03
 2.08708E+03
 2.08510E+03
 2.08483E+03
 2.08878E+03
 2.08768E+03
 2.08355E+03
 2.08720E+03
 2.08468E+03
 2.08462E+03
 2.09067E+03
 2.08840E+03
 2.07695E+03
 2.08477E+03
 2.08740E+03
 2.08485E+03
 2.08552E+03
 2.08790E+03
 2.08878E+03
 2.08330E+03
 2.08570E+03
 2.09193E+03
 2.08863E+03
 2.08503E+03
 2.09297E+03
 2.08762E+03
 2.08560E+03
 2.09178E+03
 2.08582E+03
 2.08963E+03
 2.08750E+03
 2.08348E+03
 2.08117E+03
 2.08908E+03
 2.09162E+03
 2.08968E+03
 2.08468E+03
 2.09230E+03
 2.09418E+03
 2.09160E+03
 2.09047E+03
 2.09655E+03
 2.08668E+03
 2.09472E+03
 2.09465E+03
 2.09278E+03
 2.09277E+03
 2.08788E+03
 2.09447E+03
 2.09553E+03
 2.09413E+03
 2.09187E+03
 2.10147E+03
 2.09592E+03
 2.10302E+03
 2.10097E+03
 2.10242E+03
 2.10435E+03
 2.09863E+03
 2.10082E+03
 2.10680E+03
 2.10673E+03
 2.09460E+03
 2.10068E+03
 2.09805E+03
 2.10083E+03
 2.10638E+03
 2.10305E+03
 2.09645E+03
 2.10242E+03
 2.10513E+03
 2.10045E+03
 2.10645E+03
 2.10005E+03
 2.11018E+03
 2.10748E+03
 2.11058E+03
 2.10543E+03
 2.10243E+03
 2.10490E+03
 2.10755E+03
 2.10342E+03
 2.11143E+03
 2.11017E+03
 2.10772E+03
 2.10725E+03
 2.11230E+03
 2.11028E+03
 2.11040E+03
 2.11388E+03
 2.10632E+03
 2.11252E+03
 2.11010E+03
 2.11773E+03
 2.11528E+03
 2.11462E+03
 2.12237E+03
 2.11482E+03
 2.11642E+03
 2.11465E+03
 2.12167E+03
 2.11698E+03
 2.11855E+03
 2.12528E+03
 2.11417E+03
 2.12023E+03
 2.11940E+03
 2.11948E+03
 2.12723E+03
 2.12825E+03
 2.11870E+03
 2.12502E+03
 2.12183E+03
 2.12090E+03
 2.12293E+03
 2.11777E+03
 2.11688E+03
 2.12412E+03
 2.12260E+03
 2.11918E+03
 2.11745E+03
 2.12218E+03
 2.12495E+03
 2.11820E+03
 2.11982E+03
 2.11885E+03
 2.11983E+03
 2.11768E+03
 2.11922E+03
 2.12455E+03
 2.12450E+03
 2.12070E+03
 2.12357E+03
 2.12730E+03
 2.12233E+03
 2.12103E+03
 2.12502E+03
 2.11892E+03
 2.12207E+03
 2.12412E+03
 2.12258E+03
 2.13623E+03
 2.13147E+03
 2.13142E+03
 2.13173E+03
 2.12723E+03
 2.13560E+03
 2.12885E+03
 2.13157E+03
 2.13532E+03
 2.13452E+03
 2.13762E+03
 2.12955E+03
 2.13035E+03
 2.13975E+03
 2.13540E+03
 2.13527E+03
 2.13482E+03
 2.13363E+03
 2.13458E+03
 2.13522E+03
 2.13745E+03
 2.13430E+03
 2.13692E+03
 2.13195E+03
 2.13435E+03
 2.13665E+03
 2.13062E+03
 2.13140E+03
 2.13527E+03
 2.12995E+03
 2.13148E+03
 2.13315E+03
 2.13302E+03
 2.12990E+03
 2.13245E+03
 2.12792E+03
 2.12555E+03
 2.13535E+03
 2.13117E+03
 2.13373E+03
 2.13520E+03
 2.12785E+03
 2.13493E+03
 2.13668E+03
 2.13425E+03
 2.13553E+03
 2.13868E+03
 2.13030E+03
 2.14800E+03
 2.14645E+03
 2.13742E+03
 2.14537E+03
 2.14167E+03
 2.13972E+03
 2.14620E+03
 2.14282E+03
 2.14742E+03
 2.14408E+03
 2.15078E+03
 2.15315E+03
 2.14925E+03
 2.16103E+03
 2.14358E+03
 2.14910E+03
 2.14733E+03
 2.15468E+03
 2.14795E+03
 2.14725E+03
 2.15255E+03
 2.14517E+03
 2.14713E+03
 2.14963E+03
 2.15258E+03
 2.15203E+03
 2.15298E+03
 2.15242E+03
 2.15248E+03
 2.14533E+03
 2.15073E+03
 2.14672E+03
 2.15007E+03
 2.14852E+03
 2.15265E+03
 2.15598E+03
 2.15077E+03
 2.14777E+03
 2.15145E+03
 2.14733E+03
 2.14865E+03
 2.15025E+03
 2.14542E+03
 2.14978E+03
 2.15667E+03
 2.15097E+03
 2.15373E+03
 2.15460E+03
 2.14652E+03
 2.15580E+03
 2.15390E+03
 2.15165E+03
 2.15530E+03
 2.15428E+03
 2.15515E+03
 2.15878E+03
 2.15560E+03
 2.15750E+03
 2.15552E+03
 2.15848E+03
 2.15718E+03
 2.15983E+03
 2.15622E+03
 2.15722E+03
 2.16553E+03
 2.15632E+03
 2.15853E+03
 2.15687E+03
 2.15988E+03
 2.15310E+03
 2.15598E+03
 2.16543E+03
 2.16608E+03
 2.16100E+03
 2.16028E+03
 2.16897E+03
 2.16123E+03
 2.15732E+03
 2.16218E+03
 2.16480E+03
 2.16320E+03
 2.16755E+03
 2.16393E+03
 2.16148E+03
 2.16233E+03
 2.16227E+03
 2.17040E+03
 2.16217E+03
 2.16043E+03
 2.16382E+03
 2.16168E+03
 2.16748E+03
 2.16417E+03
 2.16525E+03
 2.16082E+03
 2.16597E+03
 2.16293E+03
 2.16660E+03
 2.16823E+03
 2.16448E+03
 2.16882E+03
 2.16462E+03
 2.16097E+03
 2.17443E+03
 2.16390E+03
 2.16257E+03
 2.16790E+03
 2.16983E+03
 2.17775E+03
 2.16553E+03
 2.16693E+03
 2.17207E+03
 2.17442E+03
 2.17450E+03
 2.17133E+03
 2.17492E+03
 2.16990E+03
 2.16397E+03
 2.16600E+03
 2.16920E+03
 2.16892E+03
 2.17547E+03
 2.17580E+03
 2.17900E+03
 2.17185E+03
 2.18320E+03
 2.17438E+03
 2.17238E+03
 2.17325E+03
 2.17700E+03
 2.17725E+03
 2.17980E+03
 2.18557E+03
 2.16933E+03
 2.18120E+03
 2.17772E+03
 2.17535E+03
 2.17585E+03
 2.17750E+03
 2.17638E+03
 2.17485E+03
 2.17668E+03
 2.17875E+03
 2.17908E+03
 2.17625E+03
 2.17270E+03
 2.17030E+03
 2.17123E+03
 2.17677E+03
 2.18730E+03
 2.18282E+03
 2.17570E+03
 2.17905E+03
 2.17507E+03
 2.18115E+03
 2.18622E+03
 2.18135E+03
 2.17750E+03
 2.18633E+03
 2.18098E+03
 2.18587E+03
 2.18515E+03
 2.17752E+03
 2.17943E+03
 2.17852E+03
 2.18370E+03
 2.18630E+03
 2.19228E+03
 2.18468E+03
 2.18807E+03
 2.18913E+03
 2.18738E+03
 2.18590E+03
 2.18817E+03
 2.18587E+03
 2.18732E+03
 2.18325E+03
 2.18917E+03
 2.18990E+03
 2.18878E+03
 2.19023E+03
 2.18698E+03
 2.19317E+03
 2.18373E+03
 2.19088E+03
 2.19548E+03
 2.19142E+03
 2.20052E+03
 2.19112E+03
 2.19413E+03
 2.19708E+03
 2.19813E+03
 2.19720E+03
 2.19075E+03
 2.19308E+03
 2.19862E+03
 2.19937E+03
 2.19897E+03
 2.20602E+03
 2.19733E+03
 2.20000E+03
 2.19702E+03
 2.20045E+03
 2.20698E+03
 2.20208E+03
 2.19818E+03
 2.20137E+03
 2.19973E+03
 2.20165E+03
 2.19932E+03
 2.20397E+03
 2.19922E+03
 2.19947E+03
 2.21035E+03
 2.20180E+03
 2.20808E+03
 2.20003E+03
 2.20458E+03
 2.20165E+03
 2.19918E+03
 2.20402E+03
 2.20705E+03
 2.20267E+03
 2.20738E+03
 2.19998E+03
 2.20768E+03
 2.20193E+03
 2.20783E+03
 2.19880E+03
 2.20117E+03
 2.20410E+03
 2.20810E+03
 2.21240E+03
 2.20348E+03
 2.20127E+03
 2.21150E+03
 2.21210E+03
 2.20853E+03
 2.20567E+03
 2.21433E+03
 2.21317E+03
 2.21098E+03
 2.20892E+03
 2.21425E+03
 2.21678E+03
 2.21385E+03
 2.21205E+03
 2.21540E+03
 2.21410E+03
 2.21673E+03
 2.21592E+03
 2.21937E+03
 2.21877E+03
 2.21420E+03
 2.21602E+03
 2.21633E+03
 2.22592E+03
 2.21105E+03
 2.21797E+03
 2.21320E+03
 2.21463E+03
 2.21400E+03
 2.21740E+03
 2.21110E+03
 2.21753E+03
 2.21908E+03
 2.21880E+03
 2.22742E+03
 2.22192E+03
 2.21382E+03
 2.20855E+03
 2.22062E+03
 2.21352E+03
 2.21727E+03
 2.21730E+03
 2.21695E+03
 2.22007E+03
 2.21933E+03
 2.21333E+03
 2.21698E+03
 2.21923E+03
 2.22003E+03
 2.21887E+03
 2.21433E+03
 2.22695E+03
 2.22102E+03
 2.21918E+03
 2.21928E+03
 2.22020E+03
 2.21980E+03
 2.21575E+03
 2.22507E+03
 2.22675E+03
 2.22277E+03
 2.21952E+03
 2.22073E+03
 2.21380E+03
 2.22363E+03
 2.22443E+03
 2.21772E+03
 2.22720E+03
 2.22698E+03
 2.21068E+03
 2.22580E+03
 2.21785E+03
 2.22112E+03
 2.21837E+03
 2.22245E+03
 2.22215E+03
 2.22843E+03
 2.22387E+03
 2.22710E+03
 2.22505E+03
 2.22563E+03
 2.22272E+03
 2.22537E+03
 2.21655E+03
 2.22857E+03
 2.22980E+03
 2.22653E+03
 2.23428E+03
 2.22490E+03
 2.22482E+03
 2.22758E+03
 2.22188E+03
 2.22925E+03
 2.22560E+03
 2.22865E+03
 2.22410E+03
 2.21993E+03
 2.22645E+03
 2.22918E+03
 2.22085E+03
 2.21765E+03
 2.23357E+03
 2.22370E+03
 2.22177E+03
 2.21843E+03
 2.22885E+03
 2.21912E+03
 2.22800E+03
 2.22147E+03
 2.22842E+03
 2.22565E+03
 2.22705E+03
 2.22587E+03
 2.23260E+03
 2.22677E+03
 2.22855E+03
 2.23235E+03
 2.22635E+03
 2.22972E+03
 2.22778E+03
 2.22920E+03
 2.22932E+03
 2.23420E+03
 2.23560E+03
 2.23028E+03
 2.23188E+03
 2.23852E+03
 2.23855E+03
 2.23532E+03
 2.23133E+03
 2.23672E+03
 2.24212E+03
 2.23802E+03
 2.23643E+03
 2.23627E+03
 2.23632E+03
 2.22743E+03
 2.23065E+03
 2.22728E+03
 2.23435E+03
 2.23978E+03
 2.23385E+03
 2.23040E+03
 2.23685E+03
 2.23218E+03
 2.23595E+03
 2.22888E+03
 2.23770E+03
 2.24085E+03
 2.24320E+03
 2.23093E+03
 2.23488E+03
 2.22390E+03
 2.22792E+03
 2.24075E+03
 2.23232E+03
 2.22347E+03
 2.23495E+03
 2.23280E+03
 2.24035E+03
 2.23397E+03
 2.23198E+03
 2.23190E+03
 2.23925E+03
 2.22555E+03
 2.23212E+03
 2.23067E+03
 2.23385E+03
 2.22815E+03
 2.22483E+03
 2.23715E+03
 2.23550E+03
 2.23085E+03
 2.23065E+03
 2.23260E+03
 2.22712E+03
 2.23235E+03
 2.23272E+03
 2.22535E+03
 2.23445E+03
 2.22648E+03
 2.22827E+03
 2.22235E+03
 2.23338E+03
 2.22940E+03
 2.22507E+03
 2.23185E+03
 2.22350E+03
 2.23352E+03
 2.23017E+03
 2.22827E+03
 2.23712E+03
 2.23243E+03
 2.23157E+03
 2.23220E+03
 2.23090E+03
 2.23112E+03
 2.23283E+03
 2.23098E+03
 2.23387E+03
 2.23288E+03
 2.23787E+03
 2.23795E+03
 2.24080E+03
 2.23003E+03
 2.23623E+03
 2.24013E+03
 2.23220E+03
 2.23712E+03
 2.23598E+03
 2.23998E+03
 2.23023E+03
 2.23525E+03
 2.24013E+03
 2.23157E+03
 2.23845E+03
 2.23635E+03
 2.24378E+03
 2.23907E+03
 2.23613E+03
 2.23615E+03
 2.23353E+03
 2.24280E+03
 2.24338E+03
 2.23787E+03
 2.24055E+03
 2.23170E+03
 2.24125E+03
 2.23572E+03
 2.24232E+03
 2.23532E+03
 2.24910E+03
 2.24193E+03
 2.23722E+03
 2.24078E+03
 2.23240E+03
 2.24383E+03
 2.24027E+03
 2.23902E+03
 2.23917E+03
 2.23503E+03
 2.23930E+03
 2.24315E+03
 2.24427E+03
 2.24305E+03
 2.24053E+03
 2.24795E+03
 2.23797E+03
 2.24537E+03
 2.24082E+03
 2.25250E+03
 2.24958E+03
 2.24333E+03
 2.23803E+03
 2.24500E+03
 2.24395E+03
 2.23923E+03
 2.24320E+03
 2.23818E+03
 2.23747E+03
 2.24785E+03
 2.23555E+03
 2.24025E+03
 2.23980E+03
 2.24445E+03
 2.24733E+03
 2.24508E+03
 2.23872E+03
 2.24047E+03
 2.24233E+03
 2.23535E+03
 2.23465E+03
 2.23515E+03
 2.23822E+03
 2.23630E+03
 2.23325E+03
 2.24265E+03
 2.23782E+03
 2.23760E+03
 2.23902E+03
 2.23167E+03
 2.23580E+03
 2.22815E+03
 2.23073E+03
 2.23453E+03
 2.24202E+03
 2.23887E+03
 2.23402E+03
 2.24033E+03
 2.23427E+03
 2.24430E+03
 2.24557E+03
 2.24050E+03
 2.23420E+03
 2.24487E+03
 2.24365E+03
 2.24142E+03
 2.23547E+03
 2.23760E+03
 2.24110E+03
 2.24908E+03
 2.24198E+03
 2.24528E+03
 2.24565E+03
 2.23485E+03
 2.24355E+03
 2.23853E+03
 2.24292E+03
 2.23960E+03
 2.23447E+03
 2.24678E+03
 2.24617E+03
 2.24517E+03
 2.24643E+03
 2.24387E+03
 2.25053E+03
 2.24207E+03
 2.23665E+03
 2.24770E+03
 2.25063E+03
 2.24283E+03
 2.23710E+03
 2.24140E+03
 2.24110E+03
 2.24720E+03
 2.24288E+03
 2.24047E+03
 2.24220E+03
 2.24473E+03
 2.24775E+03
 2.24103E+03
 2.24285E+03
 2.24158E+03
 2.24742E+03
 2.23607E+03
 2.24832E+03
 2.24167E+03
 2.24363E+03
 2.24693E+03
 2.24572E+03
 2.24070E+03
 2.24327E+03
 2.24297E+03
 2.24452E+03
 2.24325E+03
 2.24437E+03
 2.24560E+03
 2.24658E+03
 2.24658E+03
 2.24198E+03
 2.24200E+03
 2.24450E+03
 2.24775E+03
 2.24560E+03
 2.25053E+03
 2.24415E+03
 2.25112E+03
 2.24455E+03
 2.24602E+03
 2.25090E+03
 2.25283E+03
 2.24505E+03
 2.24278E+03
 2.24763E+03
 2.24200E+03
 2.24307E+03
 2.24795E+03
 2.24793E+03
 2.24578E+03
 2.24050E+03
 2.23063E+03
 2.25050E+03
 2.24870E+03
 2.24623E+03
 2.23788E+03
 2.24647E+03
 2.23710E+03
 2.23820E+03
 2.23485E+03
 2.23840E+03
 2.24025E+03
 2.23542E+03
 2.24282E+03
 2.24108E+03
 2.24088E+03
 2.24147E+03
 2.24333E+03
 2.24200E+03
 2.24197E+03
 2.23378E+03
 2.24293E+03
 2.24483E+03
 2.24480E+03
 2.24315E+03
 2.25092E+03
 2.24512E+03
 2.24890E+03
 2.23695E+03
 2.24613E+03
 2.24778E+03
 2.24415E+03
 2.24893E+03
 2.24867E+03
 2.24565E+03
 2.25365E+03
 2.24823E+03
 2.24938E+03
 2.24907E+03
 2.24775E+03
 2.25537E+03
 2.25008E+03
 2.24440E+03
 2.24612E+03
 2.25095E+03
 2.25547E+03
 2.24813E+03
 2.24762E+03
 2.25937E+03
 2.25008E+03
 2.25152E+03
 2.24677E+03
 2.25050E+03
 2.25025E+03
 2.24902E+03
 2.25248E+03
 2.24662E+03
 2.25137E+03
 2.24170E+03
 2.25193E+03
 2.24125E+03
 2.25082E+03
 2.24533E+03
 2.24027E+03
 2.23807E+03
 2.24482E+03
 2.25203E+03
 2.24398E+03
 2.25397E+03
 2.25117E+03
 2.25208E+03
 2.24312E+03
 2.24395E+03
 2.24570E+03
 2.24565E+03
 2.24455E+03
 2.24320E+03
 2.24227E+03
 2.24795E+03
 2.24735E+03
 2.25122E+03
 2.24675E+03
 2.24977E+03
 2.26215E+03
 2.25168E+03
 2.25663E+03
 2.24915E+03
 2.25273E+03
 2.25557E+03
 2.25538E+03
 2.24998E+03
 2.25160E+03
 2.25853E+03
 2.26010E+03
 2.26568E+03
 2.25750E+03
 2.25710E+03
 2.25965E+03
 2.25613E+03
 2.25475E+03
 2.25568E+03
 2.25693E+03
 2.26527E+03
 2.24973E+03
 2.25118E+03
 2.25978E+03
 2.25832E+03
 2.25265E+03
 2.25727E+03
 2.24788E+03
 2.25263E+03
 2.25243E+03
 2.25840E+03
