 4.97437E-01
-5.16846E-01
 1.35010E-01
-5.88379E-02
 1.91162E-01
 5.24536E-01
-2.43652E-01
-4.78760E-01
 3.89526E-01
-1.55518E-01
 1.69434E-01
 5.97778E-01
-1.07056E+00
 5.31128E-01
 1.86157E-01
 5.27710E-01
 3.89526E-01
-2.28760E-01
-3.10303E-01
 4.07837E-01
 5.28687E-01
 3.03589E-01
 9.85107E-02
-1.53198E-01
-6.51611E-01
-1.63330E-01
 7.82471E-02
-2.67334E-02
 1.03821E+00
-5.43457E-01
 1.78223E-01
 3.20068E-01
 1.15112E-01
 4.96704E-01
-1.01440E-01
 2.36938E-01
-6.71265E-01
-1.75537E-01
 8.41187E-01
-2.55127E-02
 1.24512E-01
 4.12842E-01
-4.23218E-01
 8.47168E-02
 1.29272E-01
-8.89404E-01
-3.71338E-01
-1.16577E-01
 1.24878E-01
 5.29785E-02
 7.17773E-01
 2.85889E-01
 1.62415E+00
 1.96570E+00
 1.37732E+00
 1.02422E+01
 9.74270E+01
 6.53049E+02
 1.76894E+03
 1.60764E+03
 4.77717E+02
 5.76537E+01
 6.05164E+00
 1.73645E+00
 3.07739E-01
 5.32593E-01
-3.22632E-01
-4.91089E-01
-9.56299E-01
-2.84790E-01
-1.56738E-01
-9.80957E-01
-2.41541E+00
-5.21863E+00
-1.34371E+01
-2.60153E+01
-4.36217E+01
-6.65513E+01
-9.03231E+01
-1.03350E+02
-9.79629E+01
-8.16244E+01
-2.65795E+01
 6.36722E+01
 1.37624E+02
 1.98755E+02
 2.34451E+02
 2.43705E+02
 2.48163E+02
 2.64918E+02
 2.74566E+02
 2.94741E+02
 3.11279E+02
 3.24545E+02
 3.42348E+02
 3.53267E+02
 3.57487E+02
 3.72410E+02
 4.20677E+02
 4.81278E+02
 5.49473E+02
 6.12955E+02
 6.82685E+02
 7.44008E+02
 7.97354E+02
 8.40001E+02
 8.79698E+02
 9.52722E+02
 1.05572E+03
 1.08973E+03
 1.04873E+03
 9.82744E+02
 9.10645E+02
 8.58495E+02
 8.25892E+02
 7.94670E+02
 8.13393E+02
 8.54844E+02
 9.24953E+02
 9.70588E+02
 1.00230E+03
 1.03555E+03
 1.06709E+03
 1.01965E+03
 9.29460E+02
 8.54278E+02
 8.18666E+02
 7.99523E+02
 7.81348E+02
 7.64241E+02
 7.39534E+02
 7.20095E+02
 6.97105E+02
 6.75781E+02
 6.70723E+02
 6.42496E+02
 6.35401E+02
 6.24203E+02
 5.76553E+02
 5.54850E+02
 5.38527E+02
 5.18183E+02
 5.04086E+02
 4.95884E+02
 4.76545E+02
 4.61100E+02
 4.55085E+02
 4.43914E+02
 4.36587E+02
 4.30255E+02
 4.23234E+02
 4.18706E+02
 4.11989E+02
 4.12783E+02
 4.42353E+02
 5.13499E+02
 5.22905E+02
 4.77237E+02
 4.32429E+02
 4.43246E+02
 4.43773E+02
 4.53192E+02
 4.67819E+02
 4.88172E+02
 5.01266E+02
 5.34802E+02
 5.51230E+02
 5.66183E+02
 5.70027E+02
 5.75396E+02
 5.78605E+02
 6.03056E+02
 6.17331E+02
 6.44213E+02
 6.57103E+02
 6.78533E+02
 7.16721E+02
 7.33916E+02
 7.74701E+02
 8.00376E+02
 8.40142E+02
 8.95714E+02
 9.52460E+02
 1.06630E+03
 1.24010E+03
 1.56697E+03
 2.33416E+03
 4.55540E+03
 9.64450E+03
 1.39986E+04
 1.06481E+04
 4.71019E+03
 2.30745E+03
 1.91653E+03
 2.22572E+03
 3.27068E+03
 6.25461E+03
 1.26732E+04
 1.83562E+04
 1.50865E+04
 7.58098E+03
 3.63362E+03
 2.43284E+03
 2.06273E+03
 1.85537E+03
 1.70520E+03
 1.63189E+03
 1.62260E+03
 1.66821E+03
 1.73653E+03
 1.84907E+03
 1.98000E+03
 2.16805E+03
 2.26904E+03
 2.24900E+03
 2.12392E+03
 2.00209E+03
 1.91745E+03
 1.71535E+03
 1.40528E+03
 1.03846E+03
 7.14468E+02
 5.30851E+02
 4.17671E+02
 3.89680E+02
 3.79894E+02
 3.63512E+02
 3.68651E+02
 3.74345E+02
 3.82226E+02
 3.80946E+02
 3.85436E+02
 3.98664E+02
 4.13630E+02
 4.30700E+02
 4.62891E+02
 5.10253E+02
 6.51320E+02
 1.05892E+03
 1.87075E+03
 2.19396E+03
 1.55246E+03
 9.00749E+02
 6.80357E+02
 6.19886E+02
 6.04402E+02
 6.17940E+02
 6.37731E+02
 6.74743E+02
 7.18609E+02
 7.74096E+02
 8.42353E+02
 9.12064E+02
 9.91163E+02
 1.09765E+03
 1.17291E+03
 1.14897E+03
 1.04481E+03
 9.74115E+02
 9.58354E+02
 9.82080E+02
 1.03211E+03
 1.10126E+03
 1.16440E+03
 1.22607E+03
 1.24093E+03
 1.13773E+03
 9.62250E+02
 8.13706E+02
 7.29366E+02
 6.93313E+02
 6.74397E+02
 6.69268E+02
 6.33659E+02
 6.35470E+02
 6.28802E+02
 6.24521E+02
 6.24360E+02
 6.06753E+02
 5.90066E+02
 5.88933E+02
 5.40170E+02
 4.47394E+02
 3.57637E+02
 2.79668E+02
 2.40253E+02
 2.23091E+02
 2.05849E+02
 2.01144E+02
 2.00043E+02
 2.01612E+02
 2.23817E+02
 2.31460E+02
 2.40056E+02
 2.27055E+02
 2.28658E+02
 2.17764E+02
 2.09774E+02
 2.05720E+02
 2.13554E+02
 2.29291E+02
 2.78148E+02
 3.12175E+02
 3.52972E+02
 3.53122E+02
 3.62476E+02
 3.30334E+02
 3.07144E+02
 3.01992E+02
 3.21709E+02
 3.53130E+02
 3.80921E+02
 3.92182E+02
 4.05164E+02
 4.20931E+02
 4.47436E+02
 4.61344E+02
 5.00822E+02
 5.40470E+02
 6.02104E+02
 6.28409E+02
 6.70317E+02
 6.56146E+02
 6.22410E+02
 5.62328E+02
 4.96717E+02
 4.33825E+02
 3.60303E+02
 3.45151E+02
 3.83736E+02
 4.45991E+02
 4.88316E+02
 4.94628E+02
 4.61493E+02
 4.07578E+02
 3.62000E+02
 3.06041E+02
 2.59136E+02
 2.33251E+02
 2.25253E+02
 2.23658E+02
 2.35900E+02
 2.50128E+02
 2.72044E+02
 2.91929E+02
 3.06984E+02
 3.11676E+02
 3.03588E+02
 2.78237E+02
 2.39888E+02
 1.97244E+02
 1.62453E+02
 1.44131E+02
 1.17013E+02
 1.10849E+02
 1.10088E+02
 9.64971E+01
 9.71094E+01
 9.75083E+01
 9.56609E+01
 8.63167E+01
 9.41096E+01
 8.44387E+01
 8.39885E+01
 6.70745E+01
 6.81643E+01
 6.84238E+01
 5.96206E+01
 5.94036E+01
 5.24905E+01
 5.39141E+01
 5.50576E+01
 5.32383E+01
 5.82053E+01
 5.94260E+01
 6.48337E+01
 5.97449E+01
 5.62095E+01
 5.45107E+01
 5.74993E+01
 6.13577E+01
 5.74861E+01
 6.04185E+01
 5.74043E+01
 5.74102E+01
 5.74861E+01
 5.68994E+01
 6.30327E+01
 6.54199E+01
 5.87939E+01
 6.68879E+01
 7.43022E+01
 7.60205E+01
 8.97922E+01
 9.63345E+01
 1.06414E+02
 9.95796E+01
 1.07450E+02
 1.10240E+02
 1.02550E+02
 1.05215E+02
 1.11683E+02
 1.18171E+02
 1.13347E+02
 1.14126E+02
 1.19293E+02
 1.13046E+02
 1.17920E+02
 1.08765E+02
 1.09697E+02
 1.05449E+02
 1.06656E+02
 1.07082E+02
 9.60964E+01
 9.08311E+01
 8.08198E+01
 6.44790E+01
 6.74255E+01
 5.77598E+01
 5.36807E+01
 4.21897E+01
 4.15857E+01
 3.14524E+01
 2.88235E+01
 2.95151E+01
 2.45444E+01
 1.80278E+01
 1.84819E+01
 1.57737E+01
 1.52363E+01
 1.15200E+01
 8.72461E+00
 8.21680E+00
 7.09644E+00
 5.18042E+00
 4.53589E+00
-2.53784E+00
-5.10718E+00
 2.31128E+00
-5.24902E+00
-2.42163E+00
 2.17700E+00
-8.84521E-01
 1.36987E+00
-1.59180E+00
 1.00000E+00
-1.99219E-01
-1.11328E-01
 4.27954E+00
 1.06201E-01
-3.21704E+00
 6.12549E-01
 2.96143E-01
 4.02344E+00
 9.04297E-01
-2.07788E+00
-2.32324E+00
-5.81543E-01
-2.96997E+00
 8.62061E-01
 4.19751E+00
 6.61987E+00
 2.14551E+00
 3.67480E+00
 6.57422E+00
-1.15625E+00
-8.16650E-01
 2.44336E+00
-1.54346E+00
 4.10645E+00
 1.55981E+00
-5.29053E-01
 3.58643E-01
 6.73364E+00
 8.29541E+00
 6.17749E+00
 1.91284E+00
 1.81836E+00
-1.68921E+00
-1.36011E+00
-5.21045E+00
-9.07715E-01
 3.13208E+00
 7.65381E-01
 3.53540E+00
 3.08887E+00
-7.40869E+00
-4.69238E-01
 1.35718E+00
 6.85400E+00
 7.00464E+00
 5.40869E+00
 7.50000E-01
 1.11816E+00
-2.99316E+00
-6.38379E+00
-4.78760E+00
 2.26270E+00
-3.63330E+00
 6.32446E+00
 4.35254E+00
 3.51782E+00
 5.98682E+00
 1.94312E+00
 2.30273E+00
 7.26636E+00
 8.58325E+00
 4.37085E+00
 2.59546E+00
 3.52393E+00
 7.52246E+00
 2.09106E+00
 2.76367E+00
 6.88989E+00
 5.46948E+00
 2.86938E+00
 8.67285E+00
 7.89673E+00
 4.94067E+00
 1.08884E+01
 2.00635E+00
 9.82739E+00
 8.48560E+00
 2.14722E+00
 9.76270E+00
 9.11475E+00
 5.95361E+00
 6.82959E+00
 5.94214E+00
 8.74146E+00
 1.27944E+01
 1.09175E+01
 2.99390E+00
 1.46738E+01
 1.36238E+01
 1.85774E+01
 2.07507E+01
 1.96926E+01
 2.80007E+01
 2.77791E+01
 2.92778E+01
 2.77964E+01
 3.22856E+01
 3.46111E+01
 2.81907E+01
 3.62397E+01
 3.62429E+01
 3.72659E+01
 4.72922E+01
 4.60889E+01
 3.72056E+01
 3.53755E+01
 4.41326E+01
 4.22429E+01
 4.20068E+01
 3.95408E+01
 4.33279E+01
 3.94854E+01
 3.26626E+01
 4.00769E+01
 3.93110E+01
 2.87153E+01
 3.39895E+01
 3.47673E+01
 2.79819E+01
 3.36665E+01
 2.76211E+01
 2.66621E+01
 2.38735E+01
 2.00217E+01
 1.44063E+01
 2.37444E+01
 1.66858E+01
 1.85139E+01
 1.46121E+01
 8.96362E+00
 1.28350E+01
 8.74316E+00
 6.73804E+00
 1.14028E+01
 1.00215E+01
 7.00977E+00
 3.40112E+00
 9.07959E+00
 4.89453E+00
 3.26294E+00
 4.88452E+00
 4.17627E+00
 5.93799E+00
 5.91992E+00
 6.28809E+00
 8.37646E+00
 3.43506E+00
 3.63525E-01
 9.78760E-01
-1.66943E+00
-2.14771E+00
-8.80566E+00
 1.85620E+00
-1.46582E+00
-4.51587E+00
 2.60449E+00
-2.48877E+00
 5.08838E+00
 3.71899E+00
 5.01929E+00
 1.39014E+00
 5.89746E+00
-5.40845E+00
-2.81104E+00
-1.69336E+00
 2.64429E+00
-3.01465E+00
 5.12964E+00
 2.10693E-01
 3.95264E-01
 8.14966E+00
-8.08838E-01
-8.30811E-01
-1.09961E+00
 2.78516E+00
 5.39795E-01
-1.16870E+00
 1.11428E+01
 4.47437E+00
 7.59229E+00
-1.18604E+00
 4.65552E+00
 1.00671E+01
 1.00151E+01
 6.25000E+00
 1.84551E+01
 1.41301E+01
 2.28252E+01
 2.41401E+01
 2.44919E+01
 3.27800E+01
 3.20549E+01
 3.97834E+01
 4.15486E+01
 4.35837E+01
 4.92722E+01
 5.73140E+01
 6.62590E+01
 7.44575E+01
 7.01094E+01
 7.15979E+01
 7.91396E+01
 8.23853E+01
 8.34170E+01
 8.74524E+01
 8.35579E+01
 8.76331E+01
 8.99788E+01
 1.00844E+02
 8.62629E+01
 9.90020E+01
 8.74109E+01
 8.56401E+01
 7.08057E+01
 7.30583E+01
 7.09473E+01
 6.71067E+01
 5.87610E+01
 4.72896E+01
 3.62217E+01
 3.85903E+01
 3.90957E+01
 3.36208E+01
 3.12000E+01
 2.12820E+01
 1.80508E+01
 1.34231E+01
 9.99878E+00
 1.23279E+01
 1.06768E+01
 2.34595E+00
-1.33154E+00
 9.78027E-01
 5.71289E-02
-7.64160E-02
 7.34302E+00
 2.96582E+00
-7.42432E+00
 1.13086E+00
-3.57715E+00
 1.48486E+00
-2.23291E+00
 1.20264E+00
-1.35132E+00
-1.40869E+00
 3.78027E+00
-1.31079E+00
 5.38550E+00
 9.68018E-01
-7.45850E-01
-2.88940E+00
 2.72021E+00
 6.16943E-01
 2.33643E-01
 4.07056E+00
 2.86084E+00
-1.37891E+00
 2.16821E+00
-4.47998E-01
-6.10596E-01
 5.34668E+00
 2.99072E+00
-8.54517E+00
-8.10791E-01
 1.74341E+00
-9.36768E-01
-3.97217E-01
 1.86230E+00
 2.62598E+00
-2.97412E+00
-6.87500E-01
 5.43628E+00
 2.02979E+00
-1.67285E+00
 6.16064E+00
 7.14844E-01
-1.39429E+00
 4.65015E+00
-1.46094E+00
 2.21484E+00
-5.59082E-02
-4.20654E+00
-6.77515E+00
 8.32764E-01
 3.06152E+00
 8.27637E-01
-4.47070E+00
 2.78711E+00
 4.31592E+00
 1.38257E+00
-1.39893E-01
 5.53101E+00
-4.74341E+00
 2.88647E+00
 2.42114E+00
 1.60645E-01
-2.45850E-01
-5.51416E+00
 6.88232E-01
 1.37891E+00
-4.62402E-01
-3.17456E+00
 5.98438E+00
-1.46484E-03
 6.66724E+00
 4.19043E+00
 5.21899E+00
 6.73511E+00
 6.05957E-01
 2.38135E+00
 7.96167E+00
 7.49634E+00
-5.03101E+00
 6.62598E-01
-2.35596E+00
 4.66309E-02
 5.22021E+00
 1.51514E+00
-5.45239E+00
 8.93555E-02
 2.37476E+00
-2.73535E+00
 2.84302E+00
-3.97412E+00
 5.74683E+00
 2.63892E+00
 5.33569E+00
-2.12891E-01
-3.60693E+00
-1.53027E+00
 7.34863E-01
-3.77905E+00
 3.86133E+00
 2.22266E+00
-5.94971E-01
-1.42456E+00
 3.26660E+00
 8.95508E-01
 6.61621E-01
 3.79907E+00
-4.10938E+00
 1.75293E+00
-9.96826E-01
 6.30737E+00
 3.53223E+00
 2.54468E+00
 9.97778E+00
 2.11499E+00
 3.40625E+00
 1.33496E+00
 8.05103E+00
 3.07104E+00
 4.34521E+00
 1.07898E+01
-6.11572E-01
 5.17432E+00
 4.06421E+00
 3.87476E+00
 1.13555E+01
 1.21069E+01
 2.29565E+00
 8.35474E+00
 4.91797E+00
 3.73462E+00
 5.52197E+00
 1.13037E-01
-1.00879E+00
 5.98999E+00
 4.24243E+00
 5.81787E-01
-1.44019E+00
 3.00854E+00
 5.49438E+00
-1.53247E+00
-1.88721E-01
-1.42432E+00
-7.06299E-01
-3.11743E+00
-1.84180E+00
 3.23804E+00
 2.93823E+00
-1.10791E+00
 1.51660E+00
 5.01147E+00
-1.89941E-01
-1.72095E+00
 2.03516E+00
-4.28833E+00
-1.35815E+00
 4.43359E-01
-1.36279E+00
 1.20181E+01
 6.98608E+00
 6.67505E+00
 6.73413E+00
 1.98047E+00
 1.00974E+01
 3.10132E+00
 5.57568E+00
 9.08716E+00
 8.05249E+00
 1.09216E+01
 2.62769E+00
 3.20435E+00
 1.23843E+01
 7.81812E+00
 7.47241E+00
 6.81348E+00
 5.42505E+00
 6.17358E+00
 6.60913E+00
 8.64819E+00
 5.30786E+00
 7.73755E+00
 2.58740E+00
 4.80762E+00
 6.93140E+00
 7.25342E-01
 1.33960E+00
 5.04077E+00
-4.37988E-01
 9.37012E-01
 2.44873E+00
 2.16406E+00
-1.10059E+00
 1.30493E+00
-3.36914E+00
-5.99341E+00
 3.55322E+00
-8.80127E-01
 1.44043E+00
 2.64258E+00
-5.00781E+00
 1.63452E+00
 2.94849E+00
 8.39844E-02
 9.40918E-01
 3.66895E+00
-5.13135E+00
 1.21560E+01
 1.01982E+01
 7.61719E-01
 8.31299E+00
 4.21899E+00
 1.87915E+00
 7.97729E+00
 4.21338E+00
 8.43726E+00
 4.73169E+00
 1.10645E+01
 1.30679E+01
 8.80908E+00
 2.02380E+01
 2.43750E+00
 7.60840E+00
 5.49976E+00
 1.25125E+01
 5.44556E+00
 4.41650E+00
 9.39136E+00
 1.68726E+00
 3.33691E+00
 5.52417E+00
 8.16553E+00
 7.31104E+00
 7.96021E+00
 7.06104E+00
 6.76904E+00
-7.35840E-01
 4.31421E+00
-4.88281E-02
 2.95972E+00
 1.07202E+00
 4.87183E+00
 7.87622E+00
 2.33447E+00
-9.86572E-01
 2.37988E+00
-2.04932E+00
-1.04150E+00
 2.53906E-01
-4.87988E+00
-8.09814E-01
 5.78076E+00
-2.08008E-01
 2.20435E+00
 2.72095E+00
-5.70874E+00
 3.23291E+00
 9.95361E-01
-1.58813E+00
 1.73291E+00
 3.91113E-01
 9.36768E-01
 4.25342E+00
 7.57324E-01
 2.34863E+00
 6.05469E-02
 2.72681E+00
 1.13013E+00
 3.48730E+00
-4.17969E-01
 2.97363E-01
 8.33350E+00
-1.16016E+00
 7.83691E-01
-1.15210E+00
 1.59937E+00
-5.44531E+00
-2.81934E+00
 6.37695E+00
 6.77710E+00
 1.44775E+00
 4.88770E-01
 8.93359E+00
 9.65576E-01
-3.18213E+00
 1.45728E+00
 3.85059E+00
 2.03052E+00
 6.16455E+00
 2.33545E+00
-3.23242E-01
 3.21533E-01
 5.32227E-02
 7.98877E+00
-4.38477E-01
-2.41748E+00
 7.19727E-01
-1.65576E+00
 3.90576E+00
 3.54248E-01
 1.20654E+00
-3.45410E+00
 1.47241E+00
-1.78076E+00
 1.66992E+00
 3.09082E+00
-8.67920E-01
 3.26025E+00
-1.20483E+00
-5.11646E+00
 8.09302E+00
-2.69409E+00
-4.27710E+00
 8.10059E-01
 2.50122E+00
 1.01729E+01
-2.34033E+00
-1.23315E+00
 3.61157E+00
 5.67700E+00
 5.47949E+00
 2.03589E+00
 5.34644E+00
 6.05469E-02
-6.13794E+00
-4.36597E+00
-1.42334E+00
-1.96021E+00
 4.33984E+00
 4.42725E+00
 7.38477E+00
-3.41797E-03
 1.11116E+01
 2.06396E+00
-1.63330E-01
 4.79980E-01
 4.01001E+00
 4.04395E+00
 6.38159E+00
 1.19395E+01
-4.49902E+00
 7.16626E+00
 3.48486E+00
 9.24316E-01
 1.23364E+00
 2.69678E+00
 1.39648E+00
-3.16406E-01
 1.34058E+00
 3.23462E+00
 3.27930E+00
 1.61377E-01
-3.66968E+00
-6.34619E+00
-5.68579E+00
-4.88281E-01
 9.71191E+00
 4.89917E+00
-2.54248E+00
 4.17969E-01
-3.95068E+00
 1.75195E+00
 6.44238E+00
 1.20410E+00
-3.01367E+00
 5.45654E+00
-2.52197E-01
 4.27661E+00
 3.20972E+00
-4.76978E+00
-3.19482E+00
-4.44897E+00
 4.00879E-01
 2.67188E+00
 8.33008E+00
 4.09180E-01
 3.42505E+00
 4.10669E+00
 1.97607E+00
 1.16211E-01
 2.01123E+00
-6.56250E-01
 4.30420E-01
-3.99487E+00
 1.56738E+00
 1.95020E+00
 4.16504E-01
 1.45410E+00
-2.20386E+00
 3.57642E+00
-6.25562E+00
 5.00244E-01
 4.71045E+00
 2.58789E-01
 8.97803E+00
-7.98096E-01
 1.84644E+00
 4.42896E+00
 5.11597E+00
 3.82373E+00
-2.98071E+00
-9.97803E-01
 4.18970E+00
 4.59790E+00
 3.86011E+00
 1.05769E+01
 1.56445E+00
 3.90601E+00
 6.01807E-01
 3.71826E+00
 9.93896E+00
 4.72998E+00
 5.25635E-01
 3.40820E+00
 1.47827E+00
 3.10229E+00
 4.80225E-01
 4.84546E+00
-1.85303E-01
-2.12158E-01
 1.03987E+01
 1.57935E+00
 7.59741E+00
-7.13623E-01
 3.52222E+00
 2.67822E-01
-2.51563E+00
 2.00488E+00
 4.72974E+00
 4.17480E-02
 4.45776E+00
-3.23877E+00
 4.16846E+00
-1.87012E+00
 3.74512E+00
-5.56885E+00
-3.54395E+00
-9.48242E-01
 2.71851E+00
 6.68921E+00
-2.55249E+00
-5.09033E+00
 4.82642E+00
 5.11377E+00
 1.23828E+00
-1.93286E+00
 6.43286E+00
 4.96997E+00
 2.49390E+00
 1.38672E-01
 5.18701E+00
 7.43970E+00
 4.22974E+00
 2.15649E+00
 5.23730E+00
 3.67236E+00
 6.04443E+00
 4.97046E+00
 8.16675E+00
 7.31665E+00
 2.50391E+00
 4.07837E+00
 4.15649E+00
 1.35054E+01
-1.59229E+00
 5.09692E+00
 1.06934E-01
 1.32031E+00
 4.70947E-01
 3.65845E+00
-2.85034E+00
 3.37793E+00
 4.72632E+00
 4.24536E+00
 1.26680E+01
 6.97729E+00
-1.30981E+00
-6.75977E+00
 5.12720E+00
-2.14917E+00
 1.42822E+00
 1.29248E+00
 7.76855E-01
 3.73169E+00
 2.78809E+00
-3.42798E+00
 9.52148E-03
 2.05078E+00
 2.64575E+00
 1.27759E+00
-3.45361E+00
 8.96875E+00
 2.84473E+00
 8.24707E-01
 7.41455E-01
 1.47803E+00
 9.01855E-01
-3.32080E+00
 5.82690E+00
 7.34448E+00
 3.19922E+00
-2.09229E-01
 8.52783E-01
-6.23218E+00
 3.45337E+00
 4.10889E+00
-2.74878E+00
 6.59717E+00
 6.24658E+00
-1.01838E+01
 4.80591E+00
-3.26758E+00
-1.21094E-01
-2.98779E+00
 9.82422E-01
 5.72510E-01
 6.74976E+00
 2.08008E+00
 5.21411E+00
 3.06787E+00
 3.55859E+00
 5.52734E-01
 3.11694E+00
-5.78223E+00
 6.15552E+00
 7.31323E+00
 3.97437E+00
 1.16555E+01
 2.20630E+00
 2.06104E+00
 4.76904E+00
-9.86328E-01
 6.32837E+00
 2.60620E+00
 5.55640E+00
 9.10645E-01
-3.34888E+00
 3.07861E+00
 5.72607E+00
-2.68945E+00
-5.96875E+00
 9.87231E+00
-6.66504E-02
-2.12695E+00
-5.58398E+00
 4.65649E+00
-5.24951E+00
 3.46484E+00
-3.23438E+00
 3.55396E+00
 6.28662E-01
 1.87378E+00
 5.39063E-01
 7.12451E+00
 1.14673E+00
 2.78931E+00
 6.45190E+00
 3.17871E-01
 3.55396E+00
 1.49390E+00
 2.78687E+00
 2.78345E+00
 7.55005E+00
 8.83691E+00
 3.41064E+00
 4.90405E+00
 1.14346E+01
 1.13687E+01
 8.03906E+00
 3.96313E+00
 9.25708E+00
 1.45715E+01
 1.03889E+01
 8.72656E+00
 8.48438E+00
 8.46191E+00
-4.90234E-01
 2.66089E+00
-7.67578E-01
 6.24023E+00
 1.16182E+01
 5.63281E+00
 2.13403E+00
 8.53906E+00
 3.83032E+00
 7.55835E+00
 4.56543E-01
 9.24146E+00
 1.23630E+01
 1.46877E+01
 2.39941E+00
 6.33105E+00
-4.66748E+00
-6.62354E-01
 1.21626E+01
 3.72412E+00
-5.12769E+00
 6.35742E+00
 4.21265E+00
 1.17710E+01
 5.39917E+00
 3.43115E+00
 3.35815E+00
 1.06731E+01
-3.05859E+00
 3.47949E+00
 2.00439E+00
 5.16602E+00
-5.52734E-01
-3.88428E+00
 8.42065E+00
 6.76221E+00
 2.10742E+00
 1.90552E+00
 3.85742E+00
-1.62109E+00
 3.62085E+00
 3.99902E+00
-3.35254E+00
 5.76587E+00
-2.17896E+00
-3.70605E-01
-6.25854E+00
 4.78247E+00
 7.80518E-01
-3.76514E+00
 2.80957E+00
-5.74585E+00
 4.06934E+00
 5.21729E-01
-1.57251E+00
 7.08691E+00
 2.21655E+00
 1.16650E+00
 1.62012E+00
 1.43799E-01
 1.87988E-01
 1.73535E+00
-2.80029E-01
 2.44141E+00
 1.29956E+00
 6.12793E+00
 6.05981E+00
 8.76196E+00
-2.14893E+00
 3.91016E+00
 7.67261E+00
-4.17480E-01
 4.34058E+00
 3.05249E+00
 6.90112E+00
-2.99683E+00
 1.87524E+00
 6.61768E+00
-2.08643E+00
 4.66309E+00
 2.43262E+00
 9.73901E+00
 4.89868E+00
 1.84521E+00
 1.74512E+00
-9.84375E-01
 8.17261E+00
 8.64941E+00
 3.03003E+00
 5.61377E+00
-3.33228E+00
 6.12500E+00
 5.02441E-01
 7.01660E+00
-6.56738E-02
 1.36387E+01
 6.39624E+00
 1.60718E+00
 5.10522E+00
-3.34375E+00
 8.02734E+00
 4.40210E+00
 3.09668E+00
 3.19482E+00
-9.87061E-01
 3.23438E+00
 7.04224E+00
 8.12036E+00
 6.86865E+00
 4.32007E+00
 1.17083E+01
 1.69971E+00
 9.07813E+00
 4.50952E+00
 1.61777E+01
 1.32495E+01
 6.99097E+00
 1.68628E+00
 8.65112E+00
 7.60278E+00
 2.89111E+00
 6.86621E+00
 1.86133E+00
 1.15942E+00
 1.15615E+01
-7.16797E-01
 4.00830E+00
 3.58667E+00
 8.26855E+00
 1.11870E+01
 8.97559E+00
 2.65088E+00
 4.44604E+00
 6.36133E+00
-5.69824E-01
-1.21460E+00
-6.55762E-01
 2.47290E+00
 6.21826E-01
-2.35938E+00
 7.11279E+00
 2.35522E+00
 2.14746E+00
 3.53540E+00
-3.86157E+00
 1.92627E-01
-7.53320E+00
-5.02197E+00
-1.40527E+00
 5.89795E+00
 2.57202E+00
-2.45068E+00
 3.69678E+00
-2.53540E+00
 7.33618E+00
 8.44409E+00
 3.22266E+00
-3.22876E+00
 7.29004E+00
 5.92871E+00
 3.55469E+00
-2.53296E+00
-5.33203E-01
 2.83618E+00
 1.06924E+01
 3.46899E+00
 6.64893E+00
 6.89893E+00
-4.01416E+00
 4.57617E+00
-5.46875E-01
 3.73364E+00
 3.17383E-01
-4.91211E+00
 7.31201E+00
 6.60620E+00
 5.52026E+00
 6.70459E+00
 4.05884E+00
 1.06499E+01
 2.11084E+00
-3.37476E+00
 7.60986E+00
 1.04810E+01
 2.62231E+00
-3.16626E+00
 1.08154E+00
 7.33154E-01
 6.78760E+00
 2.42920E+00
-2.61230E-02
 1.67212E+00
 4.17383E+00
 7.16187E+00
 4.20166E-01
 2.21509E+00
 9.29688E-01
 6.74805E+00
-4.61353E+00
 7.62793E+00
 9.73145E-01
 2.93799E+00
 6.22852E+00
 4.96313E+00
-9.86328E-02
 2.42603E+00
 2.08740E+00
 3.60229E+00
 2.30396E+00
 3.39209E+00
 4.60034E+00
 5.56177E+00
 5.54346E+00
 9.28467E-01
 9.33350E-01
 3.42505E+00
 6.66992E+00
 4.51831E+00
 9.45337E+00
 3.07495E+00
 1.00500E+01
 3.49512E+00
 4.97681E+00
 9.87842E+00
 1.18337E+01
 4.07544E+00
 1.83740E+00
 6.71899E+00
 1.12109E+00
 2.22607E+00
 7.15137E+00
 7.17993E+00
 5.07886E+00
-1.52588E-01
-9.96411E+00
 9.96143E+00
 8.22363E+00
 5.82251E+00
-2.45874E+00
 6.19678E+00
-3.09424E+00
-1.91528E+00
-5.18262E+00
-1.54712E+00
 3.92334E-01
-4.34839E+00
 3.14771E+00
 1.51025E+00
 1.13403E+00
 1.54468E+00
 3.24243E+00
 1.74365E+00
 1.54810E+00
-6.79346E+00
 2.20142E+00
 3.94995E+00
 3.76880E+00
 1.97437E+00
 9.60034E+00
 3.66284E+00
 7.31201E+00
-4.76831E+00
 4.28809E+00
 5.81470E+00
 2.06104E+00
 6.72778E+00
 6.33887E+00
 3.15625E+00
 1.09944E+01
 5.41943E+00
 6.41431E+00
 5.94629E+00
 4.48169E+00
 1.19541E+01
 6.52979E+00
 7.08984E-01
 2.29175E+00
 6.99463E+00
 1.13843E+01
 3.92749E+00
 3.29077E+00
 1.49241E+01
 5.52759E+00
 6.85107E+00
 1.99487E+00
 5.62524E+00
 5.27588E+00
 3.94629E+00
 7.32056E+00
 1.36450E+00
 6.02881E+00
-3.72046E+00
 6.43408E+00
-4.32495E+00
 5.16943E+00
-3.82813E-01
-5.51514E+00
-7.77710E+00
-1.08594E+00
 6.07568E+00
-2.02637E+00
 7.90820E+00
 5.06299E+00
 5.93750E+00
-3.06763E+00
-2.26953E+00
-5.51270E-01
-6.29883E-01
-1.79761E+00
-3.22681E+00
-4.40625E+00
 1.03491E+00
 1.96533E-01
 3.82837E+00
-8.69385E-01
 1.92017E+00
 1.40798E+01
 3.39355E+00
 8.12744E+00
 4.31396E-01
 3.80615E+00
 6.43433E+00
 6.04956E+00
 4.51904E-01
 1.87427E+00
 8.59668E+00
 9.91357E+00
 1.52507E+01
 6.82520E+00
 6.18677E+00
 8.50195E+00
 4.75415E+00
 3.14380E+00
 3.85352E+00
 4.88379E+00
 1.30010E+01
-2.74487E+00
-1.50366E+00
 6.89136E+00
 5.22314E+00
-6.41602E-01
 3.78101E+00
-5.79272E+00
-1.22974E+00
-1.61304E+00
 4.17358E+00
