 1.56643E+03
 1.56680E+03
 1.56720E+03
 1.56702E+03
 1.56732E+03
 1.56660E+03
 1.56660E+03
 1.56620E+03
 1.56592E+03
 1.56647E+03
 1.56708E+03
 1.56640E+03
 1.56725E+03
 1.56668E+03
 1.56645E+03
 1.56702E+03
 1.56720E+03
 1.56692E+03
 1.56712E+03
 1.56603E+03
 1.56748E+03
 1.56615E+03
 1.56682E+03
 1.56663E+03
 1.56665E+03
 1.56667E+03
 1.56648E+03
 1.56630E+03
 1.56703E+03
 1.56645E+03
 1.56662E+03
 1.56665E+03
 1.56653E+03
 1.56732E+03
 1.56630E+03
 1.56710E+03
 1.56702E+03
 1.56665E+03
 1.56588E+03
 1.56690E+03
 1.56687E+03
 1.56703E+03
 1.56622E+03
 1.56658E+03
 1.56693E+03
 1.56737E+03
 1.56690E+03
 1.56760E+03
 1.56660E+03
 1.56735E+03
 1.56658E+03
 1.56675E+03
 1.56740E+03
 1.56643E+03
 1.56743E+03
 1.56997E+03
 1.58463E+03
 1.68483E+03
 1.88377E+03
 1.85412E+03
 1.65218E+03
 1.57790E+03
 1.56835E+03
 1.56735E+03
 1.56670E+03
 1.56785E+03
 1.56727E+03
 1.56712E+03
 1.56637E+03
 1.56680E+03
 1.56672E+03
 1.56735E+03
 1.56725E+03
 1.56710E+03
 1.56747E+03
 1.56760E+03
 1.56758E+03
 1.57018E+03
 1.57800E+03
 1.59413E+03
 1.62842E+03
 1.68297E+03
 1.76500E+03
 1.88142E+03
 2.00877E+03
 2.12218E+03
 2.19620E+03
 2.22002E+03
 2.21362E+03
 2.22112E+03
 2.21607E+03
 2.21795E+03
 2.22785E+03
 2.20773E+03
 2.19890E+03
 2.19143E+03
 2.18520E+03
 2.17595E+03
 2.18817E+03
 2.20087E+03
 2.21197E+03
 2.21102E+03
 2.21363E+03
 2.21582E+03
 2.23820E+03
 2.24942E+03
 2.25337E+03
 2.27100E+03
 2.26915E+03
 2.28873E+03
 2.28610E+03
 2.27743E+03
 2.26128E+03
 2.24825E+03
 2.22765E+03
 2.23175E+03
 2.22213E+03
 2.23203E+03
 2.24713E+03
 2.26288E+03
 2.25323E+03
 2.26287E+03
 2.25560E+03
 2.25680E+03
 2.25885E+03
 2.24572E+03
 2.24173E+03
 2.23648E+03
 2.24255E+03
 2.24603E+03
 2.26187E+03
 2.27075E+03
 2.27825E+03
 2.29282E+03
 2.32703E+03
 2.36348E+03
 2.40690E+03
 2.41293E+03
 2.41367E+03
 2.39927E+03
 2.38085E+03
 2.36735E+03
 2.37758E+03
 2.38528E+03
 2.38318E+03
 2.38662E+03
 2.38055E+03
 2.38328E+03
 2.38510E+03
 2.39145E+03
 2.40627E+03
 2.40677E+03
 2.41538E+03
 2.42755E+03
 2.44242E+03
 2.46863E+03
 2.49328E+03
 2.51680E+03
 2.54483E+03
 2.59062E+03
 2.64333E+03
 2.72737E+03
 2.78153E+03
 2.79667E+03
 2.72633E+03
 2.64137E+03
 2.59610E+03
 2.56947E+03
 2.52770E+03
 2.51588E+03
 2.49180E+03
 2.46802E+03
 2.45847E+03
 2.45100E+03
 2.44858E+03
 2.44810E+03
 2.45578E+03
 2.45273E+03
 2.45818E+03
 2.44810E+03
 2.44452E+03
 2.44705E+03
 2.45712E+03
 2.47890E+03
 2.50775E+03
 2.55835E+03
 2.63420E+03
 2.77615E+03
 3.05262E+03
 3.67035E+03
 4.45518E+03
 4.35143E+03
 3.42440E+03
 2.81708E+03
 2.75825E+03
 3.04335E+03
 3.77113E+03
 4.99952E+03
 5.84102E+03
 5.15893E+03
 3.78100E+03
 3.00127E+03
 2.69777E+03
 2.56050E+03
 2.50527E+03
 2.46840E+03
 2.47025E+03
 2.46385E+03
 2.46672E+03
 2.49515E+03
 2.49463E+03
 2.50473E+03
 2.52025E+03
 2.53787E+03
 2.55458E+03
 2.55360E+03
 2.52713E+03
 2.46655E+03
 2.41698E+03
 2.38970E+03
 2.34528E+03
 2.28410E+03
 2.23580E+03
 2.19000E+03
 2.16600E+03
 2.17903E+03
 2.19228E+03
 2.21018E+03
 2.24645E+03
 2.28003E+03
 2.33143E+03
 2.39503E+03
 2.48785E+03
 2.63428E+03
 2.87580E+03
 3.32422E+03
 4.36620E+03
 7.31413E+03
 1.62043E+04
 3.33030E+04
 4.15841E+04
 2.75235E+04
 1.22695E+04
 6.20697E+03
 4.24295E+03
 3.46868E+03
 3.06277E+03
 2.81333E+03
 2.66187E+03
 2.55920E+03
 2.46565E+03
 2.39932E+03
 2.35842E+03
 2.32682E+03
 2.31145E+03
 2.29975E+03
 2.29155E+03
 2.27897E+03
 2.25292E+03
 2.23430E+03
 2.21300E+03
 2.21377E+03
 2.21732E+03
 2.22352E+03
 2.23875E+03
 2.24283E+03
 2.25958E+03
 2.25822E+03
 2.24170E+03
 2.21323E+03
 2.18092E+03
 2.17263E+03
 2.17227E+03
 2.20008E+03
 2.20432E+03
 2.22130E+03
 2.21657E+03
 2.21522E+03
 2.20343E+03
 2.18357E+03
 2.17153E+03
 2.15190E+03
 2.13420E+03
 2.11568E+03
 2.09883E+03
 2.07615E+03
 2.06450E+03
 2.05537E+03
 2.04907E+03
 2.05025E+03
 2.05800E+03
 2.05780E+03
 2.07060E+03
 2.07362E+03
 2.07913E+03
 2.07668E+03
 2.06085E+03
 2.06025E+03
 2.03988E+03
 2.02672E+03
 2.02133E+03
 2.01195E+03
 2.00417E+03
 2.00735E+03
 1.99988E+03
 1.99415E+03
 1.99133E+03
 1.98412E+03
 1.97952E+03
 1.97490E+03
 1.97133E+03
 1.97470E+03
 1.98083E+03
 1.98937E+03
 1.98443E+03
 1.99222E+03
 1.98655E+03
 2.00720E+03
 2.01945E+03
 2.02855E+03
 2.03493E+03
 2.04502E+03
 2.05220E+03
 2.06087E+03
 2.06317E+03
 2.05845E+03
 2.05227E+03
 2.04197E+03
 2.02377E+03
 2.01745E+03
 2.01383E+03
 2.01775E+03
 2.03472E+03
 2.04197E+03
 2.05318E+03
 2.05307E+03
 2.04767E+03
 2.03457E+03
 2.02492E+03
 2.01303E+03
 2.01343E+03
 2.01533E+03
 2.02143E+03
 2.03892E+03
 2.03833E+03
 2.04403E+03
 2.05750E+03
 2.07193E+03
 2.07275E+03
 2.07697E+03
 2.07267E+03
 2.06225E+03
 2.04822E+03
 2.03970E+03
 2.02493E+03
 2.00748E+03
 2.01155E+03
 1.99915E+03
 1.99533E+03
 1.99813E+03
 1.99117E+03
 1.99495E+03
 1.99450E+03
 1.99690E+03
 1.99847E+03
 2.00008E+03
 1.99617E+03
 1.99470E+03
 1.99828E+03
 1.99160E+03
 1.99425E+03
 1.99012E+03
 1.99083E+03
 1.99145E+03
 1.99772E+03
 1.99822E+03
 1.99885E+03
 2.00450E+03
 1.99483E+03
 2.00612E+03
 2.00200E+03
 2.00410E+03
 2.00710E+03
 2.00963E+03
 2.01603E+03
 2.01485E+03
 2.02692E+03
 2.03865E+03
 2.06730E+03
 2.12152E+03
 2.22187E+03
 2.35898E+03
 2.52498E+03
 2.71202E+03
 2.89567E+03
 3.04087E+03
 3.08102E+03
 3.06102E+03
 3.03910E+03
 3.04680E+03
 3.04388E+03
 3.03222E+03
 3.06977E+03
 3.07520E+03
 3.08165E+03
 3.08907E+03
 3.11215E+03
 3.12688E+03
 3.11612E+03
 3.10700E+03
 3.11020E+03
 3.07573E+03
 2.99198E+03
 2.85802E+03
 2.68978E+03
 2.53075E+03
 2.42058E+03
 2.33065E+03
 2.27192E+03
 2.21840E+03
 2.18963E+03
 2.15765E+03
 2.12590E+03
 2.10617E+03
 2.07922E+03
 2.05632E+03
 2.02552E+03
 2.00730E+03
 1.98035E+03
 1.97145E+03
 1.94050E+03
 1.92045E+03
 1.89727E+03
 1.88027E+03
 1.86600E+03
 1.85575E+03
 1.85452E+03
 1.84517E+03
 1.84302E+03
 1.84373E+03
 1.84120E+03
 1.84042E+03
 1.83593E+03
 1.83133E+03
 1.83315E+03
 1.84230E+03
 1.83805E+03
 1.84055E+03
 1.83137E+03
 1.83820E+03
 1.83338E+03
 1.83862E+03
 1.83483E+03
 1.83598E+03
 1.83732E+03
 1.83503E+03
 1.82903E+03
 1.83758E+03
 1.83383E+03
 1.83695E+03
 1.83317E+03
 1.83385E+03
 1.83108E+03
 1.83908E+03
 1.83395E+03
 1.83387E+03
 1.83427E+03
 1.83467E+03
 1.83263E+03
 1.83360E+03
 1.82970E+03
 1.83150E+03
 1.82950E+03
 1.83475E+03
 1.83010E+03
 1.83200E+03
 1.82375E+03
 1.83115E+03
 1.82975E+03
 1.82717E+03
 1.82817E+03
 1.82800E+03
 1.82925E+03
 1.83035E+03
 1.82992E+03
 1.83190E+03
 1.82612E+03
 1.83108E+03
 1.82970E+03
 1.83257E+03
 1.82942E+03
 1.82820E+03
 1.83295E+03
 1.83430E+03
 1.83147E+03
 1.83188E+03
 1.82865E+03
 1.83390E+03
 1.83078E+03
 1.83328E+03
 1.83187E+03
 1.83405E+03
 1.83168E+03
 1.83470E+03
 1.82710E+03
 1.83050E+03
 1.83575E+03
 1.83482E+03
 1.83127E+03
 1.83657E+03
 1.82997E+03
 1.83818E+03
 1.83403E+03
 1.83125E+03
 1.83620E+03
 1.83583E+03
 1.83588E+03
 1.83448E+03
 1.83793E+03
 1.83757E+03
 1.83532E+03
 1.83375E+03
 1.83433E+03
 1.83543E+03
 1.83662E+03
 1.83505E+03
 1.83500E+03
 1.84095E+03
 1.83145E+03
 1.83908E+03
 1.84140E+03
 1.83537E+03
 1.83768E+03
 1.83883E+03
 1.84133E+03
 1.84302E+03
 1.83898E+03
 1.84218E+03
 1.84318E+03
 1.84452E+03
 1.84190E+03
 1.84728E+03
 1.84715E+03
 1.85125E+03
 1.84608E+03
 1.85228E+03
 1.84898E+03
 1.84963E+03
 1.84745E+03
 1.85127E+03
 1.84840E+03
 1.85612E+03
 1.84600E+03
 1.85593E+03
 1.84955E+03
 1.85522E+03
 1.85435E+03
 1.85575E+03
 1.85543E+03
 1.85787E+03
 1.86133E+03
 1.86013E+03
 1.86030E+03
 1.85953E+03
 1.85687E+03
 1.85547E+03
 1.86408E+03
 1.86155E+03
 1.86208E+03
 1.85895E+03
 1.86050E+03
 1.85935E+03
 1.85657E+03
 1.85957E+03
 1.86023E+03
 1.86330E+03
 1.85673E+03
 1.86007E+03
 1.86538E+03
 1.86217E+03
 1.86282E+03
 1.86057E+03
 1.86340E+03
 1.86243E+03
 1.86638E+03
 1.87133E+03
 1.87247E+03
 1.86762E+03
 1.86682E+03
 1.87008E+03
 1.87400E+03
 1.87548E+03
 1.87973E+03
 1.88255E+03
 1.87777E+03
 1.88110E+03
 1.88240E+03
 1.88085E+03
 1.87953E+03
 1.87517E+03
 1.87690E+03
 1.87560E+03
 1.88117E+03
 1.87408E+03
 1.87592E+03
 1.88198E+03
 1.87927E+03
 1.88200E+03
 1.88222E+03
 1.87858E+03
 1.87395E+03
 1.88267E+03
 1.87962E+03
 1.88282E+03
 1.87767E+03
 1.88133E+03
 1.88028E+03
 1.87852E+03
 1.88628E+03
 1.87670E+03
 1.87762E+03
 1.88423E+03
 1.88398E+03
 1.88585E+03
 1.89035E+03
 1.88532E+03
 1.88727E+03
 1.88288E+03
 1.89343E+03
 1.88840E+03
 1.89093E+03
 1.89235E+03
 1.89218E+03
 1.89622E+03
 1.89183E+03
 1.89947E+03
 1.89935E+03
 1.89688E+03
 1.89878E+03
 1.89813E+03
 1.90865E+03
 1.90580E+03
 1.90597E+03
 1.90423E+03
 1.91468E+03
 1.90892E+03
 1.90897E+03
 1.91305E+03
 1.91223E+03
 1.91703E+03
 1.91087E+03
 1.91380E+03
 1.92013E+03
 1.91433E+03
 1.92040E+03
 1.91660E+03
 1.91758E+03
 1.92560E+03
 1.92122E+03
 1.92058E+03
 1.92232E+03
 1.92763E+03
 1.92642E+03
 1.92115E+03
 1.92075E+03
 1.92205E+03
 1.92352E+03
 1.92658E+03
 1.92833E+03
 1.92368E+03
 1.92917E+03
 1.92958E+03
 1.92975E+03
 1.92902E+03
 1.92945E+03
 1.93232E+03
 1.92972E+03
 1.93188E+03
 1.93323E+03
 1.93467E+03
 1.93440E+03
 1.93853E+03
 1.94213E+03
 1.94072E+03
 1.93828E+03
 1.93883E+03
 1.93767E+03
 1.94287E+03
 1.94225E+03
 1.94518E+03
 1.95070E+03
 1.95053E+03
 1.95028E+03
 1.95107E+03
 1.95675E+03
 1.95227E+03
 1.95892E+03
 1.95675E+03
 1.96203E+03
 1.96242E+03
 1.96178E+03
 1.95930E+03
 1.95903E+03
 1.96222E+03
 1.96565E+03
 1.97093E+03
 1.96062E+03
 1.96602E+03
 1.97223E+03
 1.97407E+03
 1.97453E+03
 1.97312E+03
 1.97595E+03
 1.97223E+03
 1.97173E+03
 1.97143E+03
 1.97650E+03
 1.97505E+03
 1.97800E+03
 1.98898E+03
 1.98375E+03
 1.99305E+03
 1.98767E+03
 1.99133E+03
 1.99665E+03
 1.98437E+03
 1.99393E+03
 1.99555E+03
 1.99218E+03
 1.99920E+03
 1.99275E+03
 1.99990E+03
 1.99812E+03
 2.00402E+03
 2.00600E+03
 2.00415E+03
 2.00157E+03
 2.01255E+03
 2.00950E+03
 2.00965E+03
 2.01482E+03
 2.01532E+03
 2.01552E+03
 2.01767E+03
 2.01928E+03
 2.02220E+03
 2.02803E+03
 2.02750E+03
 2.02935E+03
 2.03288E+03
 2.03423E+03
 2.02593E+03
 2.03695E+03
 2.03598E+03
 2.03923E+03
 2.03713E+03
 2.04338E+03
 2.04217E+03
 2.04695E+03
 2.04640E+03
 2.04930E+03
 2.04688E+03
 2.05200E+03
 2.05088E+03
 2.05290E+03
 2.05933E+03
 2.05697E+03
 2.05933E+03
 2.05762E+03
 2.06893E+03
 2.06207E+03
 2.06218E+03
 2.07017E+03
 2.07162E+03
 2.06732E+03
 2.07165E+03
 2.07103E+03
 2.07188E+03
 2.08593E+03
 2.07537E+03
 2.08317E+03
 2.08380E+03
 2.08660E+03
 2.09167E+03
 2.08815E+03
 2.09340E+03
 2.09730E+03
 2.08663E+03
 2.10010E+03
 2.10047E+03
 2.10917E+03
 2.10280E+03
 2.10373E+03
 2.11452E+03
 2.11448E+03
 2.12028E+03
 2.12132E+03
 2.12383E+03
 2.12878E+03
 2.12737E+03
 2.12863E+03
 2.12960E+03
 2.13337E+03
 2.14150E+03
 2.13510E+03
 2.14038E+03
 2.14077E+03
 2.14918E+03
 2.14435E+03
 2.14738E+03
 2.14640E+03
 2.15298E+03
 2.15157E+03
 2.15017E+03
 2.15712E+03
 2.16277E+03
 2.16208E+03
 2.16007E+03
 2.15538E+03
 2.15907E+03
 2.16602E+03
 2.17400E+03
 2.17738E+03
 2.17608E+03
 2.16678E+03
 2.17515E+03
 2.17617E+03
 2.17738E+03
 2.18927E+03
 2.18668E+03
 2.18745E+03
 2.18685E+03
 2.19443E+03
 2.19435E+03
 2.21063E+03
 2.20073E+03
 2.20513E+03
 2.19902E+03
 2.20980E+03
 2.21083E+03
 2.21623E+03
 2.21783E+03
 2.23057E+03
 2.22558E+03
 2.22930E+03
 2.23115E+03
 2.23082E+03
 2.23332E+03
 2.24542E+03
 2.24035E+03
 2.24452E+03
 2.24197E+03
 2.24787E+03
 2.24890E+03
 2.25040E+03
 2.25630E+03
 2.25640E+03
 2.26798E+03
 2.26930E+03
 2.26270E+03
 2.26710E+03
 2.27513E+03
 2.27363E+03
 2.27787E+03
 2.27583E+03
 2.28430E+03
 2.28263E+03
 2.28337E+03
 2.27695E+03
 2.29630E+03
 2.28458E+03
 2.29053E+03
 2.29725E+03
 2.29693E+03
 2.30440E+03
 2.30168E+03
 2.30060E+03
 2.31092E+03
 2.31657E+03
 2.31555E+03
 2.31697E+03
 2.32530E+03
 2.32747E+03
 2.32920E+03
 2.33340E+03
 2.33717E+03
 2.34532E+03
 2.34975E+03
 2.34205E+03
 2.36053E+03
 2.36232E+03
 2.36318E+03
 2.36683E+03
 2.37325E+03
 2.37317E+03
 2.37997E+03
 2.38072E+03
 2.38780E+03
 2.39545E+03
 2.39105E+03
 2.38802E+03
 2.39427E+03
 2.40010E+03
 2.41102E+03
 2.40635E+03
 2.41188E+03
 2.41035E+03
 2.41572E+03
 2.43068E+03
 2.42388E+03
 2.43682E+03
 2.42675E+03
 2.43455E+03
 2.43683E+03
 2.43775E+03
 2.44392E+03
 2.44625E+03
 2.44357E+03
 2.45623E+03
 2.45290E+03
 2.45865E+03
 2.46257E+03
 2.45945E+03
 2.46972E+03
 2.47437E+03
 2.46748E+03
 2.46987E+03
 2.47538E+03
 2.48760E+03
 2.48788E+03
 2.49580E+03
 2.50148E+03
 2.51048E+03
 2.50797E+03
 2.51445E+03
 2.51492E+03
 2.51660E+03
 2.52512E+03
 2.52173E+03
 2.52928E+03
 2.53757E+03
 2.54568E+03
 2.55065E+03
 2.54315E+03
 2.56375E+03
 2.55450E+03
 2.55905E+03
 2.56792E+03
 2.56895E+03
 2.56427E+03
 2.56803E+03
 2.58532E+03
 2.59367E+03
 2.58933E+03
 2.60345E+03
 2.59047E+03
 2.58850E+03
 2.60417E+03
 2.60202E+03
 2.61510E+03
 2.61762E+03
 2.62073E+03
 2.62803E+03
 2.63113E+03
 2.63595E+03
 2.64880E+03
 2.64030E+03
 2.65485E+03
 2.66673E+03
 2.66952E+03
 2.66188E+03
 2.66493E+03
 2.67473E+03
 2.66140E+03
 2.68563E+03
 2.67278E+03
 2.69210E+03
 2.69643E+03
 2.69592E+03
 2.69662E+03
 2.70758E+03
 2.72268E+03
 2.71137E+03
 2.71485E+03
 2.72065E+03
 2.72480E+03
 2.73850E+03
 2.73958E+03
 2.74508E+03
 2.76178E+03
 2.74617E+03
 2.75502E+03
 2.76302E+03
 2.78135E+03
 2.77825E+03
 2.78230E+03
 2.78660E+03
 2.79012E+03
 2.79250E+03
 2.80088E+03
 2.81307E+03
 2.80955E+03
 2.81240E+03
 2.81735E+03
 2.82083E+03
 2.83483E+03
 2.83877E+03
 2.84353E+03
 2.84497E+03
 2.84543E+03
 2.85285E+03
 2.86948E+03
 2.86763E+03
 2.87442E+03
 2.87423E+03
 2.88275E+03
 2.89263E+03
 2.88772E+03
 2.89508E+03
 2.89612E+03
 2.91780E+03
 2.91703E+03
 2.91978E+03
 2.91263E+03
 2.92565E+03
 2.92148E+03
 2.94138E+03
 2.94690E+03
 2.95273E+03
 2.94745E+03
 2.97000E+03
 2.96797E+03
 2.97798E+03
 2.97937E+03
 2.97647E+03
 2.98695E+03
 3.00153E+03
 3.00547E+03
 3.00885E+03
 3.02013E+03
 3.02642E+03
 3.03100E+03
 3.03333E+03
 3.05643E+03
 3.05460E+03
 3.05330E+03
 3.05980E+03
 3.08673E+03
 3.07670E+03
 3.07242E+03
 3.08302E+03
 3.08575E+03
 3.09263E+03
 3.09313E+03
 3.11977E+03
 3.11525E+03
 3.12097E+03
 3.13325E+03
 3.15260E+03
 3.14518E+03
 3.14715E+03
 3.15145E+03
 3.16982E+03
 3.16752E+03
 3.17388E+03
 3.18150E+03
 3.19500E+03
 3.19405E+03
 3.20013E+03
 3.20680E+03
 3.21642E+03
 3.22113E+03
 3.22070E+03
 3.23340E+03
 3.23777E+03
 3.25543E+03
 3.25693E+03
 3.27313E+03
 3.27880E+03
 3.27038E+03
 3.29832E+03
 3.29498E+03
 3.29498E+03
 3.31348E+03
 3.31718E+03
 3.32042E+03
 3.33410E+03
 3.32770E+03
 3.34627E+03
 3.34932E+03
 3.35347E+03
 3.35907E+03
 3.37392E+03
 3.37650E+03
 3.38770E+03
 3.40588E+03
 3.40088E+03
 3.40177E+03
 3.41457E+03
 3.40782E+03
 3.41712E+03
 3.43692E+03
 3.42617E+03
 3.44515E+03
 3.43345E+03
 3.45590E+03
 3.43690E+03
 3.47345E+03
 3.48827E+03
 3.48483E+03
 3.48810E+03
 3.48757E+03
 3.50100E+03
 3.52347E+03
 3.52377E+03
 3.53920E+03
 3.54425E+03
 3.53665E+03
 3.55412E+03
 3.55680E+03
 3.57138E+03
 3.58332E+03
 3.59425E+03
 3.60013E+03
 3.59422E+03
 3.62533E+03
 3.61890E+03
 3.61925E+03
 3.64170E+03
 3.62900E+03
 3.65468E+03
 3.67918E+03
 3.68060E+03
 3.67582E+03
 3.69108E+03
 3.69953E+03
 3.70857E+03
 3.72023E+03
 3.72167E+03
 3.73123E+03
 3.74492E+03
 3.74147E+03
 3.77338E+03
 3.74258E+03
 3.76615E+03
 3.77377E+03
 3.78952E+03
 3.78403E+03
 3.80813E+03
 3.80093E+03
 3.80665E+03
 3.83265E+03
 3.83570E+03
 3.83880E+03
 3.85557E+03
 3.83798E+03
 3.85222E+03
 3.86877E+03
 3.87695E+03
 3.89482E+03
 3.89588E+03
 3.89737E+03
 3.89197E+03
 3.91337E+03
 3.92735E+03
 3.93673E+03
 3.93845E+03
 3.95307E+03
 3.96415E+03
 3.96638E+03
 3.97292E+03
 3.97383E+03
 3.99007E+03
 3.98335E+03
 3.99795E+03
 4.01597E+03
 4.03492E+03
 4.04387E+03
 4.04212E+03
 4.04402E+03
 4.06413E+03
 4.06372E+03
 4.07462E+03
 4.07427E+03
 4.09818E+03
 4.11057E+03
 4.11678E+03
 4.10937E+03
 4.13418E+03
 4.13412E+03
 4.15187E+03
 4.15518E+03
 4.14948E+03
 4.15987E+03
 4.18937E+03
 4.19577E+03
 4.18997E+03
 4.21058E+03
 4.22720E+03
 4.22553E+03
 4.23480E+03
 4.23505E+03
 4.24803E+03
 4.25252E+03
 4.26283E+03
 4.28978E+03
 4.27632E+03
 4.28453E+03
 4.29237E+03
 4.29690E+03
 4.29788E+03
 4.31020E+03
 4.31693E+03
 4.32617E+03
 4.34387E+03
 4.35848E+03
 4.36485E+03
 4.39443E+03
 4.38293E+03
 4.38517E+03
 4.38975E+03
 4.40962E+03
 4.39875E+03
 4.42207E+03
 4.44280E+03
 4.43473E+03
 4.44387E+03
 4.47022E+03
 4.45763E+03
 4.48205E+03
 4.48468E+03
 4.50433E+03
 4.51843E+03
 4.51905E+03
 4.52498E+03
 4.54967E+03
 4.54877E+03
 4.56563E+03
 4.57127E+03
 4.58482E+03
 4.57592E+03
 4.59797E+03
 4.61868E+03
 4.62935E+03
 4.62002E+03
 4.63055E+03
 4.65298E+03
 4.67135E+03
 4.66178E+03
 4.68215E+03
 4.68060E+03
 4.66962E+03
 4.71433E+03
 4.71065E+03
 4.71703E+03
 4.71905E+03
 4.72125E+03
 4.73192E+03
 4.73953E+03
 4.75638E+03
 4.77163E+03
 4.78055E+03
 4.78508E+03
 4.77883E+03
 4.80137E+03
 4.82230E+03
 4.81682E+03
 4.83408E+03
 4.82143E+03
 4.83763E+03
 4.85258E+03
 4.86665E+03
 4.87267E+03
 4.90742E+03
 4.90378E+03
 4.91955E+03
 4.91890E+03
 4.93035E+03
 4.94528E+03
 4.94653E+03
 4.95230E+03
 4.96795E+03
 4.98310E+03
 4.98928E+03
 5.00232E+03
 5.02737E+03
 5.01357E+03
 5.03190E+03
 5.04612E+03
 5.05473E+03
 5.06168E+03
 5.07907E+03
 5.07995E+03
 5.06910E+03
 5.09588E+03
 5.11062E+03
 5.10722E+03
 5.13627E+03
 5.14270E+03
 5.14788E+03
 5.13605E+03
 5.17333E+03
 5.16780E+03
 5.16812E+03
 5.21185E+03
 5.20300E+03
 5.22858E+03
 5.25022E+03
 5.25573E+03
 5.23492E+03
 5.24630E+03
 5.27310E+03
 5.27430E+03
 5.28072E+03
 5.30697E+03
 5.32225E+03
 5.32937E+03
 5.33330E+03
 5.36188E+03
 5.34337E+03
 5.36600E+03
 5.39582E+03
 5.40963E+03
 5.41770E+03
 5.40800E+03
 5.42852E+03
 5.43588E+03
 5.47627E+03
 5.45000E+03
 5.48977E+03
 5.49418E+03
 5.50913E+03
 5.51335E+03
 5.52020E+03
 5.53832E+03
 5.56790E+03
 5.56723E+03
 5.56705E+03
 5.57853E+03
 5.59338E+03
 5.59668E+03
 5.58900E+03
 5.60143E+03
 5.61892E+03
 5.64588E+03
 5.64533E+03
 5.65783E+03
 5.65828E+03
 5.67472E+03
 5.68250E+03
 5.69832E+03
 5.71693E+03
 5.73142E+03
 5.73562E+03
 5.75012E+03
 5.75770E+03
 5.75180E+03
 5.77873E+03
 5.78532E+03
 5.80008E+03
 5.84523E+03
 5.84065E+03
 5.83710E+03
 5.83975E+03
 5.87167E+03
 5.88127E+03
 5.87592E+03
 5.89607E+03
 5.89955E+03
 5.93118E+03
 5.94458E+03
 5.95940E+03
 5.95068E+03
 5.96353E+03
 5.96475E+03
 6.00288E+03
 6.00478E+03
 5.99037E+03
 6.00418E+03
 6.02048E+03
 6.04740E+03
 6.05810E+03
 6.06297E+03
 6.06937E+03
 6.08812E+03
 6.09528E+03
 6.08530E+03
 6.11185E+03
 6.12955E+03
 6.11380E+03
 6.12857E+03
 6.15493E+03
 6.13693E+03
 6.14745E+03
 6.17562E+03
 6.18778E+03
 6.18150E+03
 6.21022E+03
 6.23292E+03
 6.23248E+03
 6.25368E+03
 6.26357E+03
 6.28065E+03
 6.27573E+03
 6.30153E+03
 6.31805E+03
 6.34043E+03
 6.34050E+03
 6.36655E+03
 6.38492E+03
 6.38658E+03
 6.40668E+03
 6.43172E+03
 6.41707E+03
 6.44417E+03
 6.46912E+03
 6.49478E+03
 6.49952E+03
 6.50053E+03
 6.53867E+03
 6.52655E+03
 6.55077E+03
 6.57045E+03
 6.57552E+03
 6.59227E+03
 6.60645E+03
 6.59852E+03
 6.62553E+03
 6.64927E+03
 6.64650E+03
 6.66510E+03
 6.66813E+03
 6.67978E+03
 6.71212E+03
 6.70557E+03
 6.71662E+03
 6.72318E+03
 6.74452E+03
 6.73673E+03
 6.76995E+03
 6.77928E+03
 6.78260E+03
 6.79148E+03
 6.81237E+03
 6.83773E+03
 6.85237E+03
 6.89038E+03
 6.89523E+03
 6.91502E+03
 6.90827E+03
 6.93908E+03
 6.95153E+03
 6.95508E+03
 6.96937E+03
 6.98868E+03
 7.00553E+03
 6.99350E+03
 7.02650E+03
 7.04035E+03
 7.05705E+03
 7.07602E+03
 7.09815E+03
 7.10927E+03
 7.11730E+03
 7.14775E+03
 7.15782E+03
 7.17228E+03
 7.18545E+03
 7.20042E+03
 7.21765E+03
 7.22862E+03
 7.24445E+03
 7.25947E+03
 7.29882E+03
 7.30443E+03
 7.31998E+03
 7.35068E+03
 7.33077E+03
 7.36675E+03
 7.36780E+03
 7.37455E+03
 7.40318E+03
 7.39792E+03
 7.40980E+03
 7.40832E+03
 7.42295E+03
 7.44270E+03
 7.44065E+03
 7.46008E+03
 7.50257E+03
 7.49383E+03
 7.50212E+03
 7.52383E+03
 7.52928E+03
 7.51880E+03
 7.53533E+03
 7.56927E+03
 7.56595E+03
 7.60897E+03
 7.60233E+03
 7.63380E+03
 7.63342E+03
 7.65707E+03
 7.67407E+03
 7.70155E+03
 7.71748E+03
 7.75130E+03
 7.77340E+03
 7.79203E+03
 7.78717E+03
 7.82117E+03
 7.83965E+03
 7.86743E+03
 7.86818E+03
 7.88270E+03
 7.92010E+03
 7.92828E+03
 7.92845E+03
 7.99128E+03
 7.99903E+03
 8.02787E+03
 8.08013E+03
 8.07978E+03
 8.12220E+03
 8.12150E+03
 8.16885E+03
 8.16282E+03
 8.15608E+03
 8.19362E+03
 8.21338E+03
 8.22953E+03
 8.26127E+03
 8.26077E+03
 8.28088E+03
 8.27838E+03
 8.32032E+03
 8.32027E+03
 8.35840E+03
 8.33823E+03
 8.38860E+03
 8.36447E+03
 8.40785E+03
 8.39760E+03
 8.39497E+03
 8.41837E+03
 8.43017E+03
 8.45932E+03
 8.49650E+03
 8.50395E+03
 8.53215E+03
 8.53278E+03
 8.56547E+03
 8.56470E+03
 8.61825E+03
 8.61842E+03
 8.65678E+03
 8.67968E+03
 8.72395E+03
 8.69315E+03
 8.72927E+03
 8.73803E+03
 8.79302E+03
 8.81895E+03
 8.80303E+03
 8.85843E+03
 8.86405E+03
 8.88887E+03
 8.91252E+03
 8.94850E+03
 8.98622E+03
 9.00773E+03
 9.03410E+03
 9.05535E+03
 9.08410E+03
 9.07023E+03
 9.12248E+03
 9.15800E+03
 9.16123E+03
 9.18522E+03
 9.22553E+03
 9.23667E+03
 9.25467E+03
 9.27620E+03
 9.31800E+03
 9.31053E+03
 9.32688E+03
 9.36355E+03
 9.37573E+03
 9.39252E+03
 9.40890E+03
 9.44785E+03
 9.46465E+03
 9.49162E+03
 9.48592E+03
 9.51258E+03
 9.52887E+03
 9.55467E+03
 9.57135E+03
 9.60782E+03
 9.63202E+03
