-1.72976E+02
-1.69951E+02
-1.66928E+02
-1.63905E+02
-1.60884E+02
-1.57864E+02
-1.54844E+02
-1.51826E+02
-1.48809E+02
-1.45793E+02
-1.42778E+02
-1.39764E+02
-1.36751E+02
-1.33740E+02
-1.30729E+02
-1.27719E+02
-1.24711E+02
-1.21703E+02
-1.18697E+02
-1.15692E+02
-1.12687E+02
-1.09684E+02
-1.06682E+02
-1.03681E+02
-1.00681E+02
-9.76815E+01
-9.46836E+01
-9.16867E+01
-8.86908E+01
-8.56960E+01
-8.27023E+01
-7.97096E+01
-7.67180E+01
-7.37275E+01
-7.07379E+01
-6.77495E+01
-6.47621E+01
-6.17757E+01
-5.87904E+01
-5.58062E+01
-5.28230E+01
-4.98408E+01
-4.68597E+01
-4.38797E+01
-4.09007E+01
-3.79227E+01
-3.49458E+01
-3.19699E+01
-2.89951E+01
-2.60213E+01
-2.30486E+01
-2.00769E+01
-1.71063E+01
-1.41367E+01
-1.11681E+01
-8.20058E+00
-5.23410E+00
-2.26866E+00
 6.95735E-01
 3.65909E+00
 6.62141E+00
 9.58269E+00
 1.25429E+01
 1.55021E+01
 1.84603E+01
 2.14175E+01
 2.43736E+01
 2.73286E+01
 3.02827E+01
 3.32356E+01
 3.61876E+01
 3.91385E+01
 4.20884E+01
 4.50373E+01
 4.79852E+01
 5.09320E+01
 5.38777E+01
 5.68225E+01
 5.97662E+01
 6.27089E+01
 6.56506E+01
 6.85912E+01
 7.15308E+01
 7.44694E+01
 7.74070E+01
 8.03435E+01
 8.32791E+01
 8.62135E+01
 8.91470E+01
 9.20795E+01
 9.50109E+01
 9.79413E+01
 1.00871E+02
 1.03799E+02
 1.06726E+02
 1.09653E+02
 1.12578E+02
 1.15502E+02
 1.18426E+02
 1.21348E+02
 1.24269E+02
 1.27189E+02
 1.30109E+02
 1.33027E+02
 1.35944E+02
 1.38860E+02
 1.41775E+02
 1.44689E+02
 1.47603E+02
 1.50515E+02
 1.53426E+02
 1.56336E+02
 1.59245E+02
 1.62153E+02
 1.65060E+02
 1.67966E+02
 1.70871E+02
 1.73775E+02
 1.76678E+02
 1.79580E+02
 1.82482E+02
 1.85382E+02
 1.88281E+02
 1.91179E+02
 1.94076E+02
 1.96972E+02
 1.99867E+02
 2.02761E+02
 2.05654E+02
 2.08546E+02
 2.11437E+02
 2.14327E+02
 2.17216E+02
 2.20104E+02
 2.22991E+02
 2.25877E+02
 2.28762E+02
 2.31646E+02
 2.34529E+02
 2.37411E+02
 2.40292E+02
 2.43172E+02
 2.46051E+02
 2.48930E+02
 2.51807E+02
 2.54683E+02
 2.57558E+02
 2.60432E+02
 2.63305E+02
 2.66177E+02
 2.69048E+02
 2.71919E+02
 2.74788E+02
 2.77656E+02
 2.80523E+02
 2.83389E+02
 2.86255E+02
 2.89119E+02
 2.91982E+02
 2.94844E+02
 2.97706E+02
 3.00566E+02
 3.03425E+02
 3.06284E+02
 3.09141E+02
 3.11998E+02
 3.14853E+02
 3.17707E+02
 3.20561E+02
 3.23413E+02
 3.26265E+02
 3.29115E+02
 3.31965E+02
 3.34814E+02
 3.37661E+02
 3.40508E+02
 3.43353E+02
 3.46198E+02
 3.49042E+02
 3.51885E+02
 3.54726E+02
 3.57567E+02
 3.60407E+02
 3.63246E+02
 3.66084E+02
 3.68921E+02
 3.71757E+02
 3.74592E+02
 3.77426E+02
 3.80259E+02
 3.83091E+02
 3.85922E+02
 3.88752E+02
 3.91581E+02
 3.94409E+02
 3.97237E+02
 4.00063E+02
 4.02888E+02
 4.05713E+02
 4.08536E+02
 4.11358E+02
 4.14180E+02
 4.17000E+02
 4.19820E+02
 4.22639E+02
 4.25456E+02
 4.28273E+02
 4.31089E+02
 4.33903E+02
 4.36717E+02
 4.39530E+02
 4.42342E+02
 4.45153E+02
 4.47963E+02
 4.50772E+02
 4.53580E+02
 4.56387E+02
 4.59193E+02
 4.61999E+02
 4.64803E+02
 4.67606E+02
 4.70408E+02
 4.73210E+02
 4.76010E+02
 4.78810E+02
 4.81608E+02
 4.84406E+02
 4.87203E+02
 4.89999E+02
 4.92793E+02
 4.95587E+02
 4.98380E+02
 5.01172E+02
 5.03963E+02
 5.06753E+02
 5.09542E+02
 5.12330E+02
 5.15118E+02
 5.17904E+02
 5.20689E+02
 5.23474E+02
 5.26257E+02
 5.29040E+02
 5.31821E+02
 5.34602E+02
 5.37382E+02
 5.40160E+02
 5.42938E+02
 5.45715E+02
 5.48491E+02
 5.51266E+02
 5.54040E+02
 5.56813E+02
 5.59586E+02
 5.62357E+02
 5.65127E+02
 5.67897E+02
 5.70665E+02
 5.73433E+02
 5.76200E+02
 5.78965E+02
 5.81730E+02
 5.84494E+02
 5.87257E+02
 5.90019E+02
 5.92780E+02
 5.95540E+02
 5.98299E+02
 6.01058E+02
 6.03815E+02
 6.06571E+02
 6.09327E+02
 6.12081E+02
 6.14835E+02
 6.17588E+02
 6.20340E+02
 6.23091E+02
 6.25841E+02
 6.28590E+02
 6.31338E+02
 6.34085E+02
 6.36831E+02
 6.39577E+02
 6.42321E+02
 6.45065E+02
 6.47807E+02
 6.50549E+02
 6.53290E+02
 6.56030E+02
 6.58769E+02
 6.61507E+02
 6.64244E+02
 6.66980E+02
 6.69715E+02
 6.72450E+02
 6.75183E+02
 6.77916E+02
 6.80647E+02
 6.83378E+02
 6.86108E+02
 6.88837E+02
 6.91565E+02
 6.94292E+02
 6.97018E+02
 6.99743E+02
 7.02468E+02
 7.05191E+02
 7.07914E+02
 7.10635E+02
 7.13356E+02
 7.16076E+02
 7.18795E+02
 7.21513E+02
 7.24230E+02
 7.26946E+02
 7.29662E+02
 7.32376E+02
 7.35090E+02
 7.37802E+02
 7.40514E+02
 7.43225E+02
 7.45935E+02
 7.48644E+02
 7.51352E+02
 7.54059E+02
 7.56765E+02
 7.59471E+02
 7.62175E+02
 7.64879E+02
 7.67582E+02
 7.70284E+02
 7.72985E+02
 7.75685E+02
 7.78384E+02
 7.81082E+02
 7.83779E+02
 7.86476E+02
 7.89172E+02
 7.91866E+02
 7.94560E+02
 7.97253E+02
 7.99945E+02
 8.02636E+02
 8.05326E+02
 8.08016E+02
 8.10704E+02
 8.13392E+02
 8.16079E+02
 8.18764E+02
 8.21449E+02
 8.24133E+02
 8.26816E+02
 8.29499E+02
 8.32180E+02
 8.34861E+02
 8.37540E+02
 8.40219E+02
 8.42897E+02
 8.45574E+02
 8.48250E+02
 8.50925E+02
 8.53599E+02
 8.56273E+02
 8.58945E+02
 8.61617E+02
 8.64288E+02
 8.66958E+02
 8.69627E+02
 8.72295E+02
 8.74962E+02
 8.77629E+02
 8.80294E+02
 8.82959E+02
 8.85623E+02
 8.88286E+02
 8.90948E+02
 8.93609E+02
 8.96269E+02
 8.98929E+02
 9.01587E+02
 9.04245E+02
 9.06902E+02
 9.09558E+02
 9.12213E+02
 9.14867E+02
 9.17521E+02
 9.20173E+02
 9.22825E+02
 9.25475E+02
 9.28125E+02
 9.30774E+02
 9.33422E+02
 9.36070E+02
 9.38716E+02
 9.41362E+02
 9.44006E+02
 9.46650E+02
 9.49293E+02
 9.51935E+02
 9.54576E+02
 9.57217E+02
 9.59856E+02
 9.62495E+02
 9.65133E+02
 9.67770E+02
 9.70406E+02
 9.73041E+02
 9.75675E+02
 9.78309E+02
 9.80941E+02
 9.83573E+02
 9.86204E+02
 9.88834E+02
 9.91463E+02
 9.94092E+02
 9.96719E+02
 9.99346E+02
 1.00197E+03
 1.00460E+03
 1.00722E+03
 1.00984E+03
 1.01247E+03
 1.01509E+03
 1.01771E+03
 1.02033E+03
 1.02295E+03
 1.02557E+03
 1.02818E+03
 1.03080E+03
 1.03341E+03
 1.03603E+03
 1.03864E+03
 1.04126E+03
 1.04387E+03
 1.04648E+03
 1.04909E+03
 1.05170E+03
 1.05431E+03
 1.05692E+03
 1.05952E+03
 1.06213E+03
 1.06474E+03
 1.06734E+03
 1.06994E+03
 1.07255E+03
 1.07515E+03
 1.07775E+03
 1.08035E+03
 1.08295E+03
 1.08555E+03
 1.08815E+03
 1.09074E+03
 1.09334E+03
 1.09593E+03
 1.09853E+03
 1.10112E+03
 1.10372E+03
 1.10631E+03
 1.10890E+03
 1.11149E+03
 1.11408E+03
 1.11667E+03
 1.11926E+03
 1.12184E+03
 1.12443E+03
 1.12701E+03
 1.12960E+03
 1.13218E+03
 1.13476E+03
 1.13735E+03
 1.13993E+03
 1.14251E+03
 1.14509E+03
 1.14767E+03
 1.15024E+03
 1.15282E+03
 1.15540E+03
 1.15797E+03
 1.16055E+03
 1.16312E+03
 1.16569E+03
 1.16827E+03
 1.17084E+03
 1.17341E+03
 1.17598E+03
 1.17855E+03
 1.18111E+03
 1.18368E+03
 1.18625E+03
 1.18881E+03
 1.19138E+03
 1.19394E+03
 1.19650E+03
 1.19907E+03
 1.20163E+03
 1.20419E+03
 1.20675E+03
 1.20931E+03
 1.21187E+03
 1.21442E+03
 1.21698E+03
 1.21953E+03
 1.22209E+03
 1.22464E+03
 1.22720E+03
 1.22975E+03
 1.23230E+03
 1.23485E+03
 1.23740E+03
 1.23995E+03
 1.24250E+03
 1.24505E+03
 1.24759E+03
 1.25014E+03
 1.25268E+03
 1.25523E+03
 1.25777E+03
 1.26031E+03
 1.26286E+03
 1.26540E+03
 1.26794E+03
 1.27048E+03
 1.27302E+03
 1.27555E+03
 1.27809E+03
 1.28063E+03
 1.28316E+03
 1.28570E+03
 1.28823E+03
 1.29076E+03
 1.29330E+03
 1.29583E+03
 1.29836E+03
 1.30089E+03
 1.30342E+03
 1.30594E+03
 1.30847E+03
 1.31100E+03
 1.31352E+03
 1.31605E+03
 1.31857E+03
 1.32110E+03
 1.32362E+03
 1.32614E+03
 1.32866E+03
 1.33118E+03
 1.33370E+03
 1.33622E+03
 1.33874E+03
 1.34125E+03
 1.34377E+03
 1.34629E+03
 1.34880E+03
 1.35131E+03
 1.35383E+03
 1.35634E+03
 1.35885E+03
 1.36136E+03
 1.36387E+03
 1.36638E+03
 1.36889E+03
 1.37140E+03
 1.37390E+03
 1.37641E+03
 1.37891E+03
 1.38142E+03
 1.38392E+03
 1.38642E+03
 1.38893E+03
 1.39143E+03
 1.39393E+03
 1.39643E+03
 1.39893E+03
 1.40142E+03
 1.40392E+03
 1.40642E+03
 1.40891E+03
 1.41141E+03
 1.41390E+03
 1.41640E+03
 1.41889E+03
 1.42138E+03
 1.42387E+03
 1.42636E+03
 1.42885E+03
 1.43134E+03
 1.43383E+03
 1.43631E+03
 1.43880E+03
 1.44129E+03
 1.44377E+03
 1.44625E+03
 1.44874E+03
 1.45122E+03
 1.45370E+03
 1.45618E+03
 1.45866E+03
 1.46114E+03
 1.46362E+03
 1.46610E+03
 1.46857E+03
 1.47105E+03
 1.47353E+03
 1.47600E+03
 1.47847E+03
 1.48095E+03
 1.48342E+03
 1.48589E+03
 1.48836E+03
 1.49083E+03
 1.49330E+03
 1.49577E+03
 1.49824E+03
 1.50070E+03
 1.50317E+03
 1.50564E+03
 1.50810E+03
 1.51056E+03
 1.51303E+03
 1.51549E+03
 1.51795E+03
 1.52041E+03
 1.52287E+03
 1.52533E+03
 1.52779E+03
 1.53025E+03
 1.53270E+03
 1.53516E+03
 1.53762E+03
 1.54007E+03
 1.54252E+03
 1.54498E+03
 1.54743E+03
 1.54988E+03
 1.55233E+03
 1.55478E+03
 1.55723E+03
 1.55968E+03
 1.56213E+03
 1.56458E+03
 1.56702E+03
 1.56947E+03
 1.57191E+03
 1.57436E+03
 1.57680E+03
 1.57924E+03
 1.58168E+03
 1.58412E+03
 1.58657E+03
 1.58900E+03
 1.59144E+03
 1.59388E+03
 1.59632E+03
 1.59876E+03
 1.60119E+03
 1.60363E+03
 1.60606E+03
 1.60849E+03
 1.61093E+03
 1.61336E+03
 1.61579E+03
 1.61822E+03
 1.62065E+03
 1.62308E+03
 1.62551E+03
 1.62793E+03
 1.63036E+03
 1.63279E+03
 1.63521E+03
 1.63764E+03
 1.64006E+03
 1.64248E+03
 1.64491E+03
 1.64733E+03
 1.64975E+03
 1.65217E+03
 1.65459E+03
 1.65701E+03
 1.65942E+03
 1.66184E+03
 1.66426E+03
 1.66667E+03
 1.66909E+03
 1.67150E+03
 1.67391E+03
 1.67633E+03
 1.67874E+03
 1.68115E+03
 1.68356E+03
 1.68597E+03
 1.68838E+03
 1.69079E+03
 1.69319E+03
 1.69560E+03
 1.69801E+03
 1.70041E+03
 1.70282E+03
 1.70522E+03
 1.70762E+03
 1.71003E+03
 1.71243E+03
 1.71483E+03
 1.71723E+03
 1.71963E+03
 1.72203E+03
 1.72442E+03
 1.72682E+03
 1.72922E+03
 1.73161E+03
 1.73401E+03
 1.73640E+03
 1.73879E+03
 1.74119E+03
 1.74358E+03
 1.74597E+03
 1.74836E+03
 1.75075E+03
 1.75314E+03
 1.75553E+03
 1.75792E+03
 1.76030E+03
 1.76269E+03
 1.76507E+03
 1.76746E+03
 1.76984E+03
 1.77223E+03
 1.77461E+03
 1.77699E+03
 1.77937E+03
 1.78175E+03
 1.78413E+03
 1.78651E+03
 1.78889E+03
 1.79127E+03
 1.79364E+03
 1.79602E+03
 1.79839E+03
 1.80077E+03
 1.80314E+03
 1.80552E+03
 1.80789E+03
 1.81026E+03
 1.81263E+03
 1.81500E+03
 1.81737E+03
 1.81974E+03
 1.82211E+03
 1.82448E+03
 1.82684E+03
 1.82921E+03
 1.83157E+03
 1.83394E+03
 1.83630E+03
 1.83866E+03
 1.84103E+03
 1.84339E+03
 1.84575E+03
 1.84811E+03
 1.85047E+03
 1.85283E+03
 1.85519E+03
 1.85754E+03
 1.85990E+03
 1.86226E+03
 1.86461E+03
 1.86697E+03
 1.86932E+03
 1.87167E+03
 1.87403E+03
 1.87638E+03
 1.87873E+03
 1.88108E+03
 1.88343E+03
 1.88578E+03
 1.88812E+03
 1.89047E+03
 1.89282E+03
 1.89516E+03
 1.89751E+03
 1.89985E+03
 1.90220E+03
 1.90454E+03
 1.90688E+03
 1.90923E+03
 1.91157E+03
 1.91391E+03
 1.91625E+03
 1.91859E+03
 1.92092E+03
 1.92326E+03
 1.92560E+03
 1.92794E+03
 1.93027E+03
 1.93261E+03
 1.93494E+03
 1.93727E+03
 1.93961E+03
 1.94194E+03
 1.94427E+03
 1.94660E+03
 1.94893E+03
 1.95126E+03
 1.95359E+03
 1.95592E+03
 1.95824E+03
 1.96057E+03
 1.96289E+03
 1.96522E+03
 1.96754E+03
 1.96987E+03
 1.97219E+03
 1.97451E+03
 1.97683E+03
 1.97915E+03
 1.98147E+03
 1.98379E+03
 1.98611E+03
 1.98843E+03
 1.99075E+03
 1.99307E+03
 1.99538E+03
 1.99770E+03
 2.00001E+03
 2.00233E+03
 2.00464E+03
 2.00695E+03
 2.00926E+03
 2.01157E+03
 2.01388E+03
 2.01619E+03
 2.01850E+03
 2.02081E+03
 2.02312E+03
 2.02543E+03
 2.02773E+03
 2.03004E+03
 2.03234E+03
 2.03465E+03
 2.03695E+03
 2.03925E+03
 2.04156E+03
 2.04386E+03
 2.04616E+03
 2.04846E+03
 2.05076E+03
 2.05306E+03
 2.05536E+03
 2.05765E+03
 2.05995E+03
 2.06225E+03
 2.06454E+03
 2.06684E+03
 2.06913E+03
 2.07142E+03
 2.07372E+03
 2.07601E+03
 2.07830E+03
 2.08059E+03
 2.08288E+03
 2.08517E+03
 2.08746E+03
 2.08975E+03
 2.09203E+03
 2.09432E+03
 2.09661E+03
 2.09889E+03
 2.10118E+03
 2.10346E+03
 2.10574E+03
 2.10803E+03
 2.11031E+03
 2.11259E+03
 2.11487E+03
 2.11715E+03
 2.11943E+03
 2.12171E+03
 2.12399E+03
 2.12626E+03
 2.12854E+03
 2.13082E+03
 2.13309E+03
 2.13537E+03
 2.13764E+03
 2.13991E+03
 2.14218E+03
 2.14446E+03
 2.14673E+03
 2.14900E+03
 2.15127E+03
 2.15354E+03
 2.15581E+03
 2.15807E+03
 2.16034E+03
 2.16261E+03
 2.16487E+03
 2.16714E+03
 2.16940E+03
 2.17167E+03
 2.17393E+03
 2.17619E+03
 2.17845E+03
 2.18072E+03
 2.18298E+03
 2.18524E+03
 2.18750E+03
 2.18975E+03
 2.19201E+03
 2.19427E+03
 2.19653E+03
 2.19878E+03
 2.20104E+03
 2.20329E+03
 2.20555E+03
 2.20780E+03
 2.21005E+03
 2.21230E+03
 2.21455E+03
 2.21680E+03
 2.21905E+03
 2.22130E+03
 2.22355E+03
 2.22580E+03
 2.22805E+03
 2.23029E+03
 2.23254E+03
 2.23479E+03
 2.23703E+03
 2.23928E+03
 2.24152E+03
 2.24376E+03
 2.24600E+03
 2.24824E+03
 2.25049E+03
 2.25273E+03
 2.25497E+03
 2.25720E+03
 2.25944E+03
 2.26168E+03
 2.26392E+03
 2.26615E+03
 2.26839E+03
 2.27062E+03
 2.27286E+03
 2.27509E+03
 2.27732E+03
 2.27956E+03
 2.28179E+03
 2.28402E+03
 2.28625E+03
 2.28848E+03
 2.29071E+03
 2.29294E+03
 2.29517E+03
 2.29739E+03
 2.29962E+03
 2.30185E+03
 2.30407E+03
 2.30629E+03
 2.30852E+03
 2.31074E+03
 2.31296E+03
 2.31519E+03
 2.31741E+03
 2.31963E+03
 2.32185E+03
 2.32407E+03
 2.32629E+03
 2.32851E+03
 2.33072E+03
 2.33294E+03
 2.33516E+03
 2.33737E+03
 2.33959E+03
 2.34180E+03
 2.34401E+03
 2.34623E+03
 2.34844E+03
 2.35065E+03
 2.35286E+03
 2.35507E+03
 2.35728E+03
 2.35949E+03
 2.36170E+03
 2.36391E+03
 2.36612E+03
 2.36832E+03
 2.37053E+03
 2.37273E+03
 2.37494E+03
 2.37714E+03
 2.37935E+03
 2.38155E+03
 2.38375E+03
 2.38595E+03
 2.38816E+03
 2.39036E+03
 2.39256E+03
 2.39475E+03
 2.39695E+03
 2.39915E+03
 2.40135E+03
 2.40354E+03
 2.40574E+03
 2.40794E+03
 2.41013E+03
 2.41232E+03
 2.41452E+03
 2.41671E+03
 2.41890E+03
 2.42109E+03
 2.42329E+03
 2.42548E+03
 2.42766E+03
 2.42985E+03
 2.43204E+03
 2.43423E+03
 2.43642E+03
 2.43860E+03
 2.44079E+03
 2.44297E+03
 2.44516E+03
 2.44734E+03
 2.44953E+03
 2.45171E+03
 2.45389E+03
 2.45607E+03
 2.45825E+03
 2.46043E+03
 2.46261E+03
 2.46479E+03
 2.46697E+03
 2.46915E+03
 2.47133E+03
 2.47350E+03
 2.47568E+03
 2.47785E+03
 2.48003E+03
 2.48220E+03
 2.48438E+03
 2.48655E+03
 2.48872E+03
 2.49089E+03
 2.49306E+03
 2.49523E+03
 2.49740E+03
 2.49957E+03
 2.50174E+03
 2.50391E+03
 2.50608E+03
 2.50824E+03
 2.51041E+03
 2.51258E+03
 2.51474E+03
 2.51690E+03
 2.51907E+03
 2.52123E+03
 2.52339E+03
 2.52556E+03
 2.52772E+03
 2.52988E+03
 2.53204E+03
 2.53420E+03
 2.53635E+03
 2.53851E+03
 2.54067E+03
 2.54283E+03
 2.54498E+03
 2.54714E+03
 2.54929E+03
 2.55145E+03
 2.55360E+03
 2.55576E+03
 2.55791E+03
 2.56006E+03
 2.56221E+03
 2.56436E+03
 2.56651E+03
 2.56866E+03
 2.57081E+03
 2.57296E+03
 2.57511E+03
 2.57725E+03
 2.57940E+03
 2.58155E+03
 2.58369E+03
 2.58584E+03
 2.58798E+03
 2.59012E+03
 2.59227E+03
 2.59441E+03
 2.59655E+03
 2.59869E+03
 2.60083E+03
 2.60297E+03
 2.60511E+03
 2.60725E+03
 2.60939E+03
 2.61153E+03
 2.61366E+03
 2.61580E+03
 2.61793E+03
 2.62007E+03
 2.62220E+03
 2.62434E+03
 2.62647E+03
 2.62860E+03
 2.63074E+03
 2.63287E+03
 2.63500E+03
 2.63713E+03
 2.63926E+03
 2.64139E+03
 2.64352E+03
 2.64564E+03
 2.64777E+03
 2.64990E+03
 2.65202E+03
 2.65415E+03
 2.65627E+03
 2.65840E+03
 2.66052E+03
 2.66265E+03
 2.66477E+03
 2.66689E+03
 2.66901E+03
 2.67113E+03
 2.67325E+03
 2.67537E+03
 2.67749E+03
 2.67961E+03
 2.68173E+03
 2.68384E+03
 2.68596E+03
 2.68808E+03
 2.69019E+03
 2.69231E+03
 2.69442E+03
 2.69654E+03
 2.69865E+03
 2.70076E+03
 2.70287E+03
 2.70498E+03
 2.70709E+03
 2.70920E+03
 2.71131E+03
 2.71342E+03
 2.71553E+03
 2.71764E+03
 2.71975E+03
 2.72185E+03
 2.72396E+03
 2.72606E+03
 2.72817E+03
 2.73027E+03
 2.73238E+03
 2.73448E+03
 2.73658E+03
 2.73869E+03
 2.74079E+03
 2.74289E+03
 2.74499E+03
 2.74709E+03
 2.74919E+03
 2.75128E+03
 2.75338E+03
 2.75548E+03
 2.75758E+03
 2.75967E+03
 2.76177E+03
 2.76386E+03
 2.76596E+03
 2.76805E+03
 2.77014E+03
 2.77224E+03
 2.77433E+03
 2.77642E+03
 2.77851E+03
 2.78060E+03
 2.78269E+03
 2.78478E+03
 2.78687E+03
 2.78896E+03
 2.79105E+03
 2.79313E+03
 2.79522E+03
 2.79730E+03
 2.79939E+03
 2.80147E+03
 2.80356E+03
 2.80564E+03
 2.80772E+03
 2.80981E+03
 2.81189E+03
 2.81397E+03
 2.81605E+03
 2.81813E+03
 2.82021E+03
 2.82229E+03
 2.82437E+03
 2.82644E+03
 2.82852E+03
 2.83060E+03
 2.83267E+03
 2.83475E+03
 2.83682E+03
 2.83890E+03
 2.84097E+03
 2.84304E+03
 2.84512E+03
 2.84719E+03
 2.84926E+03
 2.85133E+03
 2.85340E+03
 2.85547E+03
 2.85754E+03
 2.85961E+03
 2.86168E+03
 2.86374E+03
 2.86581E+03
 2.86788E+03
 2.86994E+03
 2.87201E+03
 2.87407E+03
 2.87614E+03
 2.87820E+03
 2.88026E+03
 2.88233E+03
 2.88439E+03
 2.88645E+03
 2.88851E+03
 2.89057E+03
 2.89263E+03
 2.89469E+03
 2.89675E+03
 2.89880E+03
 2.90086E+03
 2.90292E+03
 2.90497E+03
 2.90703E+03
 2.90909E+03
 2.91114E+03
 2.91319E+03
 2.91525E+03
 2.91730E+03
 2.91935E+03
 2.92140E+03
 2.92345E+03
 2.92551E+03
 2.92756E+03
 2.92960E+03
 2.93165E+03
 2.93370E+03
 2.93575E+03
 2.93780E+03
 2.93984E+03
 2.94189E+03
 2.94394E+03
 2.94598E+03
 2.94802E+03
 2.95007E+03
 2.95211E+03
 2.95415E+03
 2.95620E+03
 2.95824E+03
 2.96028E+03
 2.96232E+03
 2.96436E+03
 2.96640E+03
 2.96844E+03
 2.97048E+03
 2.97251E+03
 2.97455E+03
 2.97659E+03
 2.97862E+03
 2.98066E+03
 2.98270E+03
 2.98473E+03
 2.98676E+03
 2.98880E+03
 2.99083E+03
 2.99286E+03
 2.99489E+03
 2.99693E+03
 2.99896E+03
 3.00099E+03
 3.00302E+03
 3.00504E+03
 3.00707E+03
 3.00910E+03
 3.01113E+03
 3.01315E+03
 3.01518E+03
 3.01721E+03
 3.01923E+03
 3.02126E+03
 3.02328E+03
 3.02530E+03
 3.02733E+03
 3.02935E+03
 3.03137E+03
 3.03339E+03
 3.03541E+03
 3.03743E+03
 3.03945E+03
 3.04147E+03
 3.04349E+03
 3.04551E+03
 3.04753E+03
 3.04954E+03
 3.05156E+03
 3.05358E+03
 3.05559E+03
 3.05761E+03
 3.05962E+03
 3.06163E+03
 3.06365E+03
 3.06566E+03
 3.06767E+03
 3.06968E+03
 3.07170E+03
 3.07371E+03
 3.07572E+03
 3.07773E+03
 3.07973E+03
 3.08174E+03
 3.08375E+03
 3.08576E+03
 3.08776E+03
 3.08977E+03
 3.09178E+03
 3.09378E+03
 3.09579E+03
 3.09779E+03
 3.09979E+03
 3.10180E+03
 3.10380E+03
 3.10580E+03
 3.10780E+03
 3.10980E+03
 3.11180E+03
 3.11380E+03
 3.11580E+03
 3.11780E+03
 3.11980E+03
 3.12180E+03
 3.12379E+03
 3.12579E+03
 3.12779E+03
 3.12978E+03
 3.13178E+03
 3.13377E+03
 3.13577E+03
 3.13776E+03
 3.13975E+03
 3.14174E+03
 3.14374E+03
 3.14573E+03
 3.14772E+03
 3.14971E+03
 3.15170E+03
 3.15369E+03
 3.15568E+03
 3.15766E+03
 3.15965E+03
 3.16164E+03
 3.16362E+03
 3.16561E+03
 3.16760E+03
 3.16958E+03
 3.17157E+03
 3.17355E+03
 3.17553E+03
 3.17752E+03
 3.17950E+03
 3.18148E+03
 3.18346E+03
 3.18544E+03
 3.18742E+03
 3.18940E+03
 3.19138E+03
 3.19336E+03
 3.19534E+03
 3.19731E+03
 3.19929E+03
 3.20127E+03
 3.20324E+03
 3.20522E+03
 3.20719E+03
 3.20917E+03
 3.21114E+03
 3.21312E+03
 3.21509E+03
 3.21706E+03
 3.21903E+03
 3.22100E+03
 3.22298E+03
 3.22495E+03
 3.22692E+03
 3.22889E+03
 3.23085E+03
 3.23282E+03
 3.23479E+03
 3.23676E+03
 3.23872E+03
 3.24069E+03
 3.24266E+03
 3.24462E+03
 3.24658E+03
 3.24855E+03
 3.25051E+03
 3.25248E+03
 3.25444E+03
 3.25640E+03
 3.25836E+03
 3.26032E+03
 3.26228E+03
 3.26424E+03
 3.26620E+03
 3.26816E+03
 3.27012E+03
 3.27208E+03
 3.27403E+03
 3.27599E+03
 3.27795E+03
 3.27990E+03
 3.28186E+03
 3.28381E+03
 3.28577E+03
 3.28772E+03
 3.28968E+03
 3.29163E+03
 3.29358E+03
 3.29553E+03
 3.29748E+03
 3.29943E+03
 3.30138E+03
 3.30333E+03
 3.30528E+03
 3.30723E+03
 3.30918E+03
 3.31113E+03
 3.31307E+03
 3.31502E+03
 3.31697E+03
 3.31891E+03
 3.32086E+03
 3.32280E+03
 3.32475E+03
 3.32669E+03
 3.32863E+03
 3.33058E+03
 3.33252E+03
 3.33446E+03
 3.33640E+03
 3.33834E+03
 3.34028E+03
 3.34222E+03
 3.34416E+03
 3.34610E+03
 3.34804E+03
 3.34997E+03
 3.35191E+03
 3.35385E+03
 3.35578E+03
 3.35772E+03
 3.35965E+03
 3.36159E+03
 3.36352E+03
 3.36546E+03
 3.36739E+03
 3.36932E+03
 3.37125E+03
 3.37318E+03
 3.37512E+03
 3.37705E+03
 3.37898E+03
 3.38091E+03
 3.38283E+03
 3.38476E+03
 3.38669E+03
 3.38862E+03
 3.39055E+03
 3.39247E+03
 3.39440E+03
 3.39632E+03
 3.39825E+03
 3.40017E+03
 3.40210E+03
 3.40402E+03
 3.40594E+03
 3.40787E+03
 3.40979E+03
 3.41171E+03
 3.41363E+03
 3.41555E+03
 3.41747E+03
 3.41939E+03
 3.42131E+03
 3.42323E+03
 3.42515E+03
 3.42706E+03
 3.42898E+03
 3.43090E+03
 3.43281E+03
 3.43473E+03
 3.43664E+03
 3.43856E+03
 3.44047E+03
 3.44239E+03
 3.44430E+03
 3.44621E+03
 3.44812E+03
 3.45004E+03
 3.45195E+03
 3.45386E+03
 3.45577E+03
 3.45768E+03
 3.45959E+03
 3.46150E+03
 3.46340E+03
 3.46531E+03
 3.46722E+03
 3.46913E+03
 3.47103E+03
 3.47294E+03
 3.47484E+03
 3.47675E+03
 3.47865E+03
 3.48056E+03
 3.48246E+03
 3.48436E+03
 3.48626E+03
 3.48817E+03
 3.49007E+03
 3.49197E+03
 3.49387E+03
 3.49577E+03
 3.49767E+03
 3.49957E+03
 3.50147E+03
 3.50336E+03
 3.50526E+03
 3.50716E+03
 3.50905E+03
 3.51095E+03
 3.51285E+03
 3.51474E+03
 3.51664E+03
 3.51853E+03
 3.52042E+03
 3.52232E+03
 3.52421E+03
 3.52610E+03
 3.52799E+03
 3.52988E+03
 3.53178E+03
 3.53367E+03
 3.53556E+03
 3.53744E+03
 3.53933E+03
 3.54122E+03
 3.54311E+03
 3.54500E+03
 3.54688E+03
 3.54877E+03
 3.55066E+03
 3.55254E+03
 3.55443E+03
 3.55631E+03
 3.55820E+03
 3.56008E+03
 3.56196E+03
 3.56384E+03
 3.56573E+03
 3.56761E+03
 3.56949E+03
 3.57137E+03
 3.57325E+03
 3.57513E+03
 3.57701E+03
 3.57889E+03
 3.58077E+03
 3.58264E+03
 3.58452E+03
 3.58640E+03
 3.58827E+03
 3.59015E+03
 3.59203E+03
 3.59390E+03
 3.59578E+03
 3.59765E+03
 3.59952E+03
 3.60140E+03
 3.60327E+03
 3.60514E+03
 3.60701E+03
 3.60888E+03
 3.61075E+03
 3.61262E+03
 3.61449E+03
