 1.56622E+03
 1.56662E+03
 1.56603E+03
 1.56638E+03
 1.56632E+03
 1.56668E+03
 1.56687E+03
 1.56638E+03
 1.56550E+03
 1.56647E+03
 1.56652E+03
 1.56722E+03
 1.56632E+03
 1.56703E+03
 1.56673E+03
 1.56693E+03
 1.56703E+03
 1.56648E+03
 1.56728E+03
 1.56705E+03
 1.56628E+03
 1.56650E+03
 1.56647E+03
 1.56618E+03
 1.56698E+03
 1.56705E+03
 1.56617E+03
 1.56732E+03
 1.56635E+03
 1.56665E+03
 1.56548E+03
 1.56672E+03
 1.56717E+03
 1.56648E+03
 1.56727E+03
 1.56577E+03
 1.56608E+03
 1.56675E+03
 1.56573E+03
 1.56620E+03
 1.56668E+03
 1.56738E+03
 1.56577E+03
 1.56733E+03
 1.56610E+03
 1.56718E+03
 1.56743E+03
 1.56670E+03
 1.56660E+03
 1.56577E+03
 1.56737E+03
 1.56667E+03
 1.56750E+03
 1.56777E+03
 1.56742E+03
 1.56910E+03
 1.58595E+03
 1.69253E+03
 1.91302E+03
 1.88515E+03
 1.66595E+03
 1.57937E+03
 1.56782E+03
 1.56767E+03
 1.56693E+03
 1.56640E+03
 1.56688E+03
 1.56660E+03
 1.56693E+03
 1.56705E+03
 1.56713E+03
 1.56680E+03
 1.56723E+03
 1.56787E+03
 1.56727E+03
 1.56765E+03
 1.56758E+03
 1.56923E+03
 1.57383E+03
 1.58710E+03
 1.61210E+03
 1.64883E+03
 1.70693E+03
 1.78030E+03
 1.86972E+03
 1.94563E+03
 1.99728E+03
 2.00805E+03
 1.99578E+03
 1.98112E+03
 1.97765E+03
 1.96658E+03
 1.96438E+03
 1.94918E+03
 1.93128E+03
 1.91170E+03
 1.89515E+03
 1.88168E+03
 1.87415E+03
 1.86970E+03
 1.86292E+03
 1.86712E+03
 1.85945E+03
 1.85152E+03
 1.85338E+03
 1.84577E+03
 1.84268E+03
 1.84430E+03
 1.84145E+03
 1.84318E+03
 1.83118E+03
 1.82710E+03
 1.81957E+03
 1.81597E+03
 1.80927E+03
 1.80200E+03
 1.80047E+03
 1.79808E+03
 1.79955E+03
 1.78717E+03
 1.78867E+03
 1.78820E+03
 1.79355E+03
 1.79285E+03
 1.79612E+03
 1.79967E+03
 1.79762E+03
 1.80822E+03
 1.81102E+03
 1.81720E+03
 1.82765E+03
 1.83870E+03
 1.85333E+03
 1.87140E+03
 1.90173E+03
 1.94790E+03
 1.99392E+03
 2.02468E+03
 2.03038E+03
 2.03750E+03
 2.04027E+03
 2.04557E+03
 2.05105E+03
 2.05423E+03
 2.06398E+03
 2.06825E+03
 2.08573E+03
 2.08442E+03
 2.09757E+03
 2.11308E+03
 2.11537E+03
 2.12920E+03
 2.14098E+03
 2.15893E+03
 2.17798E+03
 2.19130E+03
 2.21078E+03
 2.23827E+03
 2.27822E+03
 2.31590E+03
 2.37655E+03
 2.45727E+03
 2.54095E+03
 2.53883E+03
 2.45892E+03
 2.35305E+03
 2.29385E+03
 2.25145E+03
 2.21533E+03
 2.18438E+03
 2.16290E+03
 2.14382E+03
 2.11868E+03
 2.09925E+03
 2.09213E+03
 2.07207E+03
 2.06173E+03
 2.04963E+03
 2.04428E+03
 2.03288E+03
 2.02440E+03
 2.01638E+03
 2.00412E+03
 2.00870E+03
 1.99943E+03
 1.99480E+03
 1.98928E+03
 1.98348E+03
 1.97660E+03
 1.97678E+03
 1.96465E+03
 1.95512E+03
 1.94940E+03
 1.94590E+03
 1.93930E+03
 1.93248E+03
 1.93787E+03
 1.93607E+03
 1.93260E+03
 1.92792E+03
 1.92395E+03
 1.92577E+03
 1.93015E+03
 1.92620E+03
 1.92790E+03
 1.93620E+03
 1.94703E+03
 1.95258E+03
 1.95827E+03
 1.96338E+03
 1.94178E+03
 1.91007E+03
 1.88385E+03
 1.85927E+03
 1.83900E+03
 1.81747E+03
 1.79318E+03
 1.76273E+03
 1.75118E+03
 1.75635E+03
 1.76748E+03
 1.78107E+03
 1.79477E+03
 1.81007E+03
 1.82463E+03
 1.84592E+03
 1.86815E+03
 1.90167E+03
 1.93480E+03
 1.97758E+03
 2.02523E+03
 2.08968E+03
 2.19402E+03
 2.37467E+03
 2.67125E+03
 3.19968E+03
 4.42198E+03
 7.94090E+03
 1.84678E+04
 3.79683E+04
 4.58792E+04
 2.90933E+04
 1.25911E+04
 6.16440E+03
 4.10062E+03
 3.28522E+03
 2.84290E+03
 2.56483E+03
 2.38963E+03
 2.25673E+03
 2.14905E+03
 2.07222E+03
 2.00568E+03
 1.96827E+03
 1.92518E+03
 1.89777E+03
 1.87163E+03
 1.84455E+03
 1.82558E+03
 1.81047E+03
 1.79558E+03
 1.78682E+03
 1.78303E+03
 1.78447E+03
 1.78125E+03
 1.77960E+03
 1.77882E+03
 1.78712E+03
 1.78870E+03
 1.79812E+03
 1.80795E+03
 1.82555E+03
 1.84175E+03
 1.86048E+03
 1.87925E+03
 1.88842E+03
 1.88722E+03
 1.87890E+03
 1.85647E+03
 1.83667E+03
 1.81838E+03
 1.81097E+03
 1.80852E+03
 1.80530E+03
 1.80662E+03
 1.79998E+03
 1.80537E+03
 1.80140E+03
 1.80587E+03
 1.80655E+03
 1.81255E+03
 1.82100E+03
 1.82988E+03
 1.83612E+03
 1.83355E+03
 1.83013E+03
 1.81937E+03
 1.81325E+03
 1.80080E+03
 1.78392E+03
 1.77927E+03
 1.76987E+03
 1.75233E+03
 1.74195E+03
 1.73617E+03
 1.72560E+03
 1.72363E+03
 1.71525E+03
 1.70818E+03
 1.70295E+03
 1.70383E+03
 1.70037E+03
 1.69817E+03
 1.69737E+03
 1.70047E+03
 1.69918E+03
 1.69647E+03
 1.69837E+03
 1.69637E+03
 1.69578E+03
 1.69667E+03
 1.69613E+03
 1.69830E+03
 1.70222E+03
 1.70203E+03
 1.70663E+03
 1.70935E+03
 1.71420E+03
 1.71732E+03
 1.71775E+03
 1.72232E+03
 1.72225E+03
 1.72693E+03
 1.72992E+03
 1.73603E+03
 1.74232E+03
 1.74375E+03
 1.74563E+03
 1.75582E+03
 1.75613E+03
 1.76187E+03
 1.76620E+03
 1.76850E+03
 1.77835E+03
 1.78435E+03
 1.78878E+03
 1.79627E+03
 1.79637E+03
 1.80085E+03
 1.80893E+03
 1.81112E+03
 1.81057E+03
 1.80418E+03
 1.79843E+03
 1.79342E+03
 1.78797E+03
 1.78297E+03
 1.77943E+03
 1.77763E+03
 1.77658E+03
 1.77523E+03
 1.77387E+03
 1.77825E+03
 1.77423E+03
 1.77693E+03
 1.77955E+03
 1.78112E+03
 1.78220E+03
 1.78332E+03
 1.78013E+03
 1.78440E+03
 1.78350E+03
 1.78248E+03
 1.78865E+03
 1.79153E+03
 1.79577E+03
 1.79668E+03
 1.79497E+03
 1.79718E+03
 1.79893E+03
 1.79478E+03
 1.80090E+03
 1.80235E+03
 1.80205E+03
 1.80692E+03
 1.81113E+03
 1.82492E+03
 1.83990E+03
 1.87713E+03
 1.94453E+03
 2.06455E+03
 2.22647E+03
 2.41857E+03
 2.62568E+03
 2.83485E+03
 2.99320E+03
 3.01118E+03
 2.99400E+03
 2.97563E+03
 2.98628E+03
 2.97442E+03
 2.99032E+03
 2.99397E+03
 3.00835E+03
 3.00953E+03
 3.02848E+03
 3.03902E+03
 3.05488E+03
 3.04538E+03
 3.04560E+03
 3.03130E+03
 3.00145E+03
 2.90762E+03
 2.73895E+03
 2.54483E+03
 2.38053E+03
 2.24237E+03
 2.15512E+03
 2.08450E+03
 2.03805E+03
 1.99668E+03
 1.95948E+03
 1.93177E+03
 1.90600E+03
 1.88127E+03
 1.85807E+03
 1.82953E+03
 1.80380E+03
 1.77985E+03
 1.75525E+03
 1.72757E+03
 1.70652E+03
 1.67905E+03
 1.66032E+03
 1.64570E+03
 1.63668E+03
 1.62970E+03
 1.62760E+03
 1.62493E+03
 1.62170E+03
 1.62178E+03
 1.61997E+03
 1.62023E+03
 1.61923E+03
 1.61870E+03
 1.61678E+03
 1.61695E+03
 1.61608E+03
 1.61615E+03
 1.61550E+03
 1.61363E+03
 1.61473E+03
 1.61513E+03
 1.61478E+03
 1.61340E+03
 1.60942E+03
 1.61320E+03
 1.61368E+03
 1.61128E+03
 1.60877E+03
 1.61057E+03
 1.61105E+03
 1.61140E+03
 1.61082E+03
 1.61147E+03
 1.60980E+03
 1.60635E+03
 1.60730E+03
 1.60565E+03
 1.60567E+03
 1.60505E+03
 1.60283E+03
 1.60320E+03
 1.60448E+03
 1.60123E+03
 1.60278E+03
 1.59935E+03
 1.60098E+03
 1.60043E+03
 1.59842E+03
 1.60042E+03
 1.59885E+03
 1.59830E+03
 1.59815E+03
 1.59855E+03
 1.59732E+03
 1.59815E+03
 1.59602E+03
 1.59567E+03
 1.59677E+03
 1.59508E+03
 1.59530E+03
 1.59570E+03
 1.59538E+03
 1.59577E+03
 1.59443E+03
 1.59515E+03
 1.59483E+03
 1.59300E+03
 1.59433E+03
 1.59470E+03
 1.59410E+03
 1.59532E+03
 1.59510E+03
 1.59447E+03
 1.59208E+03
 1.59482E+03
 1.59388E+03
 1.59585E+03
 1.59358E+03
 1.59508E+03
 1.59420E+03
 1.59425E+03
 1.59500E+03
 1.59585E+03
 1.59407E+03
 1.59380E+03
 1.59517E+03
 1.59465E+03
 1.59455E+03
 1.59507E+03
 1.59668E+03
 1.59462E+03
 1.59647E+03
 1.59517E+03
 1.59405E+03
 1.59440E+03
 1.59467E+03
 1.59705E+03
 1.59620E+03
 1.59612E+03
 1.59655E+03
 1.59728E+03
 1.59455E+03
 1.59655E+03
 1.59593E+03
 1.59613E+03
 1.59567E+03
 1.59413E+03
 1.59605E+03
 1.59575E+03
 1.59547E+03
 1.59543E+03
 1.59570E+03
 1.59355E+03
 1.59350E+03
 1.59207E+03
 1.59422E+03
 1.59365E+03
 1.59353E+03
 1.59418E+03
 1.59223E+03
 1.59340E+03
 1.59357E+03
 1.59252E+03
 1.59190E+03
 1.59365E+03
 1.59377E+03
 1.59242E+03
 1.59490E+03
 1.59425E+03
 1.59523E+03
 1.59473E+03
 1.59558E+03
 1.59437E+03
 1.59405E+03
 1.59162E+03
 1.59195E+03
 1.59285E+03
 1.59087E+03
 1.59193E+03
 1.59240E+03
 1.59115E+03
 1.59053E+03
 1.59295E+03
 1.59023E+03
 1.59292E+03
 1.59323E+03
 1.59168E+03
 1.59040E+03
 1.59265E+03
 1.59403E+03
 1.59553E+03
 1.59518E+03
 1.59598E+03
 1.59492E+03
 1.59522E+03
 1.59648E+03
 1.59870E+03
 1.59763E+03
 1.60030E+03
 1.59902E+03
 1.59863E+03
 1.60048E+03
 1.59997E+03
 1.60038E+03
 1.59813E+03
 1.59890E+03
 1.59678E+03
 1.59617E+03
 1.59592E+03
 1.59467E+03
 1.59333E+03
 1.59205E+03
 1.59008E+03
 1.59105E+03
 1.58983E+03
 1.58947E+03
 1.59107E+03
 1.59072E+03
 1.58772E+03
 1.58813E+03
 1.58795E+03
 1.58750E+03
 1.58615E+03
 1.58608E+03
 1.58615E+03
 1.58645E+03
 1.58403E+03
 1.58392E+03
 1.58378E+03
 1.58410E+03
 1.58498E+03
 1.58462E+03
 1.58330E+03
 1.58355E+03
 1.58410E+03
 1.58352E+03
 1.58357E+03
 1.58367E+03
 1.58315E+03
 1.58508E+03
 1.58428E+03
 1.58362E+03
 1.58360E+03
 1.58353E+03
 1.58518E+03
 1.58375E+03
 1.58450E+03
 1.58408E+03
 1.58570E+03
 1.58338E+03
 1.58485E+03
 1.58355E+03
 1.58422E+03
 1.58357E+03
 1.58423E+03
 1.58238E+03
 1.58537E+03
 1.58378E+03
 1.58447E+03
 1.58402E+03
 1.58400E+03
 1.58423E+03
 1.58452E+03
 1.58280E+03
 1.58485E+03
 1.58377E+03
 1.58400E+03
 1.58372E+03
 1.58360E+03
 1.58337E+03
 1.58305E+03
 1.58233E+03
 1.58340E+03
 1.58277E+03
 1.58517E+03
 1.58268E+03
 1.58292E+03
 1.58547E+03
 1.58442E+03
 1.58168E+03
 1.58370E+03
 1.58428E+03
 1.58398E+03
 1.58317E+03
 1.58320E+03
 1.58420E+03
 1.58415E+03
 1.58363E+03
 1.58397E+03
 1.58337E+03
 1.58243E+03
 1.58317E+03
 1.58298E+03
 1.58382E+03
 1.58322E+03
 1.58363E+03
 1.58267E+03
 1.58272E+03
 1.58255E+03
 1.58280E+03
 1.58343E+03
 1.58245E+03
 1.58207E+03
 1.58380E+03
 1.58372E+03
 1.58315E+03
 1.58345E+03
 1.58230E+03
 1.58297E+03
 1.58282E+03
 1.58382E+03
 1.58450E+03
 1.58313E+03
 1.58222E+03
 1.58337E+03
 1.58262E+03
 1.58243E+03
 1.58378E+03
 1.58243E+03
 1.58300E+03
 1.58297E+03
 1.58507E+03
 1.58248E+03
 1.58277E+03
 1.58343E+03
 1.58442E+03
 1.58352E+03
 1.58357E+03
 1.58298E+03
 1.58403E+03
 1.58417E+03
 1.58115E+03
 1.58162E+03
 1.58290E+03
 1.58242E+03
 1.58388E+03
 1.58333E+03
 1.58258E+03
 1.58357E+03
 1.58238E+03
 1.58345E+03
 1.58465E+03
 1.58433E+03
 1.58403E+03
 1.58353E+03
 1.58360E+03
 1.58253E+03
 1.58255E+03
 1.58490E+03
 1.58435E+03
 1.58290E+03
 1.58385E+03
 1.58438E+03
 1.58335E+03
 1.58278E+03
 1.58428E+03
 1.58408E+03
 1.58232E+03
 1.58403E+03
 1.58288E+03
 1.58335E+03
 1.58373E+03
 1.58320E+03
 1.58455E+03
 1.58345E+03
 1.58410E+03
 1.58362E+03
 1.58380E+03
 1.58515E+03
 1.58502E+03
 1.58347E+03
 1.58490E+03
 1.58347E+03
 1.58490E+03
 1.58385E+03
 1.58405E+03
 1.58420E+03
 1.58498E+03
 1.58492E+03
 1.58517E+03
 1.58387E+03
 1.58452E+03
 1.58460E+03
 1.58402E+03
 1.58640E+03
 1.58647E+03
 1.58617E+03
 1.58553E+03
 1.58522E+03
 1.58445E+03
 1.58703E+03
 1.58615E+03
 1.58522E+03
 1.58587E+03
 1.58683E+03
 1.58518E+03
 1.58617E+03
 1.58598E+03
 1.58598E+03
 1.58590E+03
 1.58525E+03
 1.58528E+03
 1.58633E+03
 1.58678E+03
 1.58602E+03
 1.58587E+03
 1.58570E+03
 1.58675E+03
 1.58440E+03
 1.58675E+03
 1.58522E+03
 1.58563E+03
 1.58628E+03
 1.58538E+03
 1.58575E+03
 1.58533E+03
 1.58530E+03
 1.58598E+03
 1.58567E+03
 1.58642E+03
 1.58693E+03
 1.58565E+03
 1.58565E+03
 1.58615E+03
 1.58663E+03
 1.58642E+03
 1.58688E+03
 1.58697E+03
 1.58580E+03
 1.58587E+03
 1.58615E+03
 1.58592E+03
 1.58633E+03
 1.58473E+03
 1.58682E+03
 1.58642E+03
 1.58682E+03
 1.58740E+03
 1.58425E+03
 1.58658E+03
 1.58695E+03
 1.58605E+03
 1.58538E+03
 1.58652E+03
 1.58645E+03
 1.58720E+03
 1.58775E+03
 1.58678E+03
 1.58758E+03
 1.58678E+03
 1.58745E+03
 1.58630E+03
 1.58757E+03
 1.58773E+03
 1.58863E+03
 1.58855E+03
 1.58740E+03
 1.58773E+03
 1.58868E+03
 1.58720E+03
 1.58877E+03
 1.58735E+03
 1.58937E+03
 1.58722E+03
 1.58850E+03
 1.58887E+03
 1.58873E+03
 1.58913E+03
 1.58667E+03
 1.58802E+03
 1.58775E+03
 1.58825E+03
 1.58852E+03
 1.58952E+03
 1.58845E+03
 1.58935E+03
 1.58700E+03
 1.58768E+03
 1.58838E+03
 1.58953E+03
 1.58837E+03
 1.58773E+03
 1.58967E+03
 1.58838E+03
 1.58748E+03
 1.58897E+03
 1.58805E+03
 1.58932E+03
 1.58980E+03
 1.58992E+03
 1.59062E+03
 1.58983E+03
 1.58943E+03
 1.58885E+03
 1.59077E+03
 1.58935E+03
 1.59097E+03
 1.58900E+03
 1.59003E+03
 1.59132E+03
 1.59088E+03
 1.59027E+03
 1.59007E+03
 1.59033E+03
 1.59065E+03
 1.59078E+03
 1.59047E+03
 1.59112E+03
 1.59093E+03
 1.59270E+03
 1.59023E+03
 1.59142E+03
 1.59155E+03
 1.59330E+03
 1.59235E+03
 1.59175E+03
 1.59272E+03
 1.59302E+03
 1.59113E+03
 1.59133E+03
 1.59108E+03
 1.59263E+03
 1.59307E+03
 1.59337E+03
 1.59165E+03
 1.59133E+03
 1.59380E+03
 1.59242E+03
 1.59160E+03
 1.59290E+03
 1.59185E+03
 1.59188E+03
 1.59307E+03
 1.59400E+03
 1.59325E+03
 1.59300E+03
 1.59195E+03
 1.59292E+03
 1.59350E+03
 1.59398E+03
 1.59225E+03
 1.59152E+03
 1.59493E+03
 1.59430E+03
 1.59467E+03
 1.59450E+03
 1.59380E+03
 1.59298E+03
 1.59487E+03
 1.59337E+03
 1.59238E+03
 1.59497E+03
 1.59382E+03
 1.59477E+03
 1.59455E+03
 1.59662E+03
 1.59598E+03
 1.59655E+03
 1.59602E+03
 1.59465E+03
 1.59488E+03
 1.59548E+03
 1.59620E+03
 1.59498E+03
 1.59635E+03
 1.59657E+03
 1.59682E+03
 1.59807E+03
 1.59773E+03
 1.59607E+03
 1.59500E+03
 1.59777E+03
 1.59712E+03
 1.59842E+03
 1.59648E+03
 1.59818E+03
 1.59908E+03
 1.59930E+03
 1.59712E+03
 1.59647E+03
 1.59753E+03
 1.59757E+03
 1.59598E+03
 1.59818E+03
 1.59670E+03
 1.59857E+03
 1.59822E+03
 1.59747E+03
 1.59880E+03
 1.59820E+03
 1.59825E+03
 1.59742E+03
 1.59820E+03
 1.59998E+03
 1.60000E+03
 1.59907E+03
 1.60035E+03
 1.60083E+03
 1.59865E+03
 1.59940E+03
 1.60068E+03
 1.59820E+03
 1.60022E+03
 1.60095E+03
 1.60115E+03
 1.59962E+03
 1.60042E+03
 1.59967E+03
 1.60045E+03
 1.60087E+03
 1.59985E+03
 1.60320E+03
 1.60128E+03
 1.60272E+03
 1.60115E+03
 1.60112E+03
 1.60218E+03
 1.60178E+03
 1.60007E+03
 1.60387E+03
 1.60260E+03
 1.60122E+03
 1.60177E+03
 1.60163E+03
 1.60175E+03
 1.60127E+03
 1.60337E+03
 1.60427E+03
 1.60232E+03
 1.60330E+03
 1.60168E+03
 1.60388E+03
 1.60327E+03
 1.60343E+03
 1.60193E+03
 1.60282E+03
 1.60523E+03
 1.60527E+03
 1.60428E+03
 1.60273E+03
 1.60392E+03
 1.60318E+03
 1.60677E+03
 1.60385E+03
 1.60402E+03
 1.60595E+03
 1.60495E+03
 1.60533E+03
 1.60525E+03
 1.60405E+03
 1.60538E+03
 1.60640E+03
 1.60617E+03
 1.60562E+03
 1.60557E+03
 1.60528E+03
 1.60540E+03
 1.60753E+03
 1.60625E+03
 1.60490E+03
 1.60530E+03
 1.60667E+03
 1.60443E+03
 1.60547E+03
 1.60773E+03
 1.60902E+03
 1.60770E+03
 1.60738E+03
 1.60862E+03
 1.60913E+03
 1.60550E+03
 1.60755E+03
 1.60747E+03
 1.60975E+03
 1.60887E+03
 1.60947E+03
 1.60887E+03
 1.60878E+03
 1.61087E+03
 1.60953E+03
 1.60637E+03
 1.60983E+03
 1.60798E+03
 1.60793E+03
 1.60905E+03
 1.60993E+03
 1.61125E+03
 1.61130E+03
 1.60953E+03
 1.61315E+03
 1.61038E+03
 1.60988E+03
 1.61077E+03
 1.61155E+03
 1.61250E+03
 1.61033E+03
 1.61162E+03
 1.61018E+03
 1.61198E+03
 1.61178E+03
 1.61170E+03
 1.61283E+03
 1.61220E+03
 1.61328E+03
 1.61563E+03
 1.61170E+03
 1.61310E+03
 1.61180E+03
 1.61297E+03
 1.61290E+03
 1.61300E+03
 1.61325E+03
 1.61325E+03
 1.61402E+03
 1.61157E+03
 1.61438E+03
 1.61332E+03
 1.61210E+03
 1.61385E+03
 1.61292E+03
 1.61300E+03
 1.61413E+03
 1.61198E+03
 1.61363E+03
 1.61375E+03
 1.61518E+03
 1.61422E+03
 1.61563E+03
 1.61695E+03
 1.61970E+03
 1.61628E+03
 1.61415E+03
 1.61772E+03
 1.61803E+03
 1.61698E+03
 1.61745E+03
 1.61767E+03
 1.61518E+03
 1.61978E+03
 1.61677E+03
 1.61623E+03
 1.62028E+03
 1.61813E+03
 1.61678E+03
 1.61792E+03
 1.61888E+03
 1.61670E+03
 1.62115E+03
 1.61767E+03
 1.61807E+03
 1.61862E+03
 1.61920E+03
 1.61907E+03
 1.61963E+03
 1.61837E+03
 1.61975E+03
 1.62102E+03
 1.61942E+03
 1.62048E+03
 1.62010E+03
 1.62217E+03
 1.62268E+03
 1.62083E+03
 1.61938E+03
 1.62200E+03
 1.62180E+03
 1.62303E+03
 1.62363E+03
 1.62095E+03
 1.62007E+03
 1.62187E+03
 1.62035E+03
 1.62250E+03
 1.62428E+03
 1.62252E+03
 1.62215E+03
 1.62130E+03
 1.62167E+03
 1.62188E+03
 1.62155E+03
 1.61993E+03
 1.62248E+03
 1.62368E+03
 1.62273E+03
 1.62357E+03
 1.62250E+03
 1.62318E+03
 1.62388E+03
 1.62385E+03
 1.62118E+03
 1.62380E+03
 1.62467E+03
 1.62355E+03
 1.62378E+03
 1.62480E+03
 1.62562E+03
 1.62515E+03
 1.62663E+03
 1.62638E+03
 1.62487E+03
 1.62650E+03
 1.62173E+03
 1.62598E+03
 1.62788E+03
 1.62562E+03
 1.62838E+03
 1.62807E+03
 1.62793E+03
 1.62575E+03
 1.62833E+03
 1.62732E+03
 1.62783E+03
 1.62620E+03
 1.62917E+03
 1.63025E+03
 1.62772E+03
 1.63070E+03
 1.62665E+03
 1.62792E+03
 1.62952E+03
 1.62913E+03
 1.63185E+03
 1.63023E+03
 1.63087E+03
 1.62850E+03
 1.62987E+03
 1.62932E+03
 1.62823E+03
 1.63043E+03
 1.63123E+03
 1.63153E+03
 1.63213E+03
 1.63240E+03
 1.63150E+03
 1.63228E+03
 1.63292E+03
 1.63258E+03
 1.63252E+03
 1.63230E+03
 1.63225E+03
 1.63337E+03
 1.63493E+03
 1.63403E+03
 1.63367E+03
 1.63467E+03
 1.63333E+03
 1.63660E+03
 1.63642E+03
 1.63595E+03
 1.63617E+03
 1.63783E+03
 1.63747E+03
 1.63452E+03
 1.63967E+03
 1.63745E+03
 1.63635E+03
 1.63817E+03
 1.63445E+03
 1.63500E+03
 1.64015E+03
 1.63662E+03
 1.63717E+03
 1.63928E+03
 1.63603E+03
 1.64100E+03
 1.63712E+03
 1.63937E+03
 1.63900E+03
 1.63588E+03
 1.63840E+03
 1.63828E+03
 1.64003E+03
 1.63857E+03
 1.64158E+03
 1.63972E+03
 1.63880E+03
 1.63900E+03
 1.64073E+03
 1.64192E+03
 1.64152E+03
 1.63947E+03
 1.64135E+03
 1.64183E+03
 1.63965E+03
 1.64008E+03
 1.63852E+03
 1.64228E+03
 1.64103E+03
 1.64288E+03
 1.64212E+03
 1.64188E+03
 1.64465E+03
 1.64453E+03
 1.64315E+03
 1.64302E+03
 1.64368E+03
 1.64198E+03
 1.64565E+03
 1.64347E+03
 1.64172E+03
 1.64463E+03
 1.64208E+03
 1.64765E+03
 1.64412E+03
 1.64688E+03
 1.64565E+03
 1.64625E+03
 1.64652E+03
 1.64475E+03
 1.64670E+03
 1.64690E+03
 1.64688E+03
 1.64527E+03
 1.65078E+03
 1.64705E+03
 1.64833E+03
 1.64903E+03
 1.64693E+03
 1.64648E+03
 1.64953E+03
 1.64855E+03
 1.64682E+03
 1.65122E+03
 1.65147E+03
 1.65037E+03
 1.65353E+03
 1.65197E+03
 1.64985E+03
 1.65190E+03
 1.65143E+03
 1.64845E+03
 1.65152E+03
 1.65173E+03
 1.65173E+03
 1.65210E+03
 1.65627E+03
 1.65158E+03
 1.65542E+03
 1.65800E+03
 1.65955E+03
 1.65750E+03
 1.65763E+03
 1.65798E+03
 1.65573E+03
 1.65737E+03
 1.65540E+03
 1.65855E+03
 1.65873E+03
 1.65783E+03
 1.66073E+03
 1.66087E+03
 1.65897E+03
 1.66210E+03
 1.66230E+03
 1.66315E+03
 1.66198E+03
 1.65953E+03
 1.66012E+03
 1.66173E+03
 1.66343E+03
 1.66388E+03
 1.66497E+03
 1.66383E+03
 1.66727E+03
 1.66737E+03
 1.66768E+03
 1.66623E+03
 1.66670E+03
 1.66730E+03
 1.66612E+03
 1.66797E+03
 1.66772E+03
 1.66978E+03
 1.67027E+03
 1.66860E+03
 1.67017E+03
 1.66995E+03
 1.67292E+03
 1.67113E+03
 1.67465E+03
 1.67455E+03
 1.67508E+03
 1.67487E+03
 1.67428E+03
 1.67575E+03
 1.67417E+03
 1.67538E+03
 1.67520E+03
 1.67797E+03
 1.67642E+03
 1.67880E+03
 1.67675E+03
 1.67692E+03
 1.67817E+03
 1.67820E+03
 1.68033E+03
 1.67960E+03
 1.68060E+03
 1.68100E+03
 1.68208E+03
 1.68338E+03
 1.68260E+03
 1.68227E+03
 1.68330E+03
 1.68468E+03
 1.68448E+03
 1.68442E+03
 1.68990E+03
 1.68615E+03
 1.68827E+03
 1.68565E+03
 1.68843E+03
 1.68905E+03
 1.69005E+03
 1.69027E+03
 1.69292E+03
 1.69173E+03
 1.69463E+03
 1.69278E+03
 1.69540E+03
 1.69615E+03
 1.69427E+03
 1.69437E+03
 1.69700E+03
 1.69770E+03
 1.69772E+03
 1.70152E+03
 1.70087E+03
 1.69905E+03
 1.70188E+03
 1.69967E+03
 1.70650E+03
 1.70310E+03
 1.70773E+03
 1.70435E+03
 1.70450E+03
 1.71075E+03
 1.70822E+03
 1.70818E+03
 1.71090E+03
 1.71165E+03
 1.71365E+03
 1.71483E+03
 1.71203E+03
 1.71417E+03
 1.71350E+03
 1.71438E+03
 1.71672E+03
 1.71138E+03
 1.71422E+03
 1.71528E+03
 1.71693E+03
 1.71920E+03
 1.72238E+03
 1.72063E+03
 1.71945E+03
 1.72040E+03
 1.72355E+03
 1.72510E+03
 1.72902E+03
 1.72728E+03
 1.72723E+03
 1.73262E+03
 1.72937E+03
 1.73072E+03
 1.73232E+03
 1.73367E+03
 1.73323E+03
 1.73595E+03
 1.73535E+03
 1.73560E+03
 1.73242E+03
 1.73630E+03
 1.73847E+03
 1.74087E+03
 1.74385E+03
 1.74458E+03
 1.74030E+03
 1.74338E+03
 1.74250E+03
 1.74452E+03
 1.74918E+03
 1.74725E+03
 1.75135E+03
 1.75068E+03
 1.74725E+03
 1.75152E+03
 1.75108E+03
 1.75553E+03
 1.75473E+03
 1.75768E+03
 1.75982E+03
 1.75492E+03
 1.75608E+03
 1.76002E+03
 1.75725E+03
 1.76142E+03
 1.75990E+03
 1.75923E+03
 1.76443E+03
 1.76587E+03
 1.76755E+03
 1.76868E+03
 1.77010E+03
 1.76780E+03
 1.77470E+03
 1.77422E+03
 1.77525E+03
 1.77212E+03
 1.77597E+03
 1.77910E+03
 1.77695E+03
 1.77348E+03
 1.78032E+03
 1.78313E+03
 1.78177E+03
 1.78242E+03
 1.78758E+03
 1.78635E+03
 1.78810E+03
 1.79067E+03
 1.79123E+03
 1.78980E+03
 1.79547E+03
 1.79838E+03
 1.79413E+03
 1.79747E+03
 1.79570E+03
 1.80025E+03
 1.80338E+03
 1.80417E+03
 1.80890E+03
 1.80330E+03
 1.80765E+03
 1.80612E+03
 1.80627E+03
 1.80647E+03
 1.81160E+03
 1.81435E+03
 1.81387E+03
 1.81545E+03
 1.81005E+03
 1.81552E+03
 1.81658E+03
 1.81953E+03
 1.82217E+03
 1.82217E+03
 1.82292E+03
 1.82475E+03
 1.82568E+03
 1.82552E+03
 1.83097E+03
 1.82923E+03
 1.82503E+03
 1.83208E+03
 1.83100E+03
 1.83430E+03
 1.83167E+03
 1.83522E+03
 1.83903E+03
 1.84382E+03
 1.84318E+03
 1.84428E+03
 1.84155E+03
 1.85092E+03
 1.85007E+03
 1.84848E+03
 1.84980E+03
 1.84605E+03
 1.85222E+03
 1.85465E+03
 1.85455E+03
 1.85892E+03
 1.85677E+03
 1.85740E+03
 1.86088E+03
 1.86480E+03
 1.86252E+03
 1.86660E+03
 1.86690E+03
 1.86773E+03
 1.87000E+03
 1.87452E+03
 1.87425E+03
 1.87843E+03
 1.88043E+03
 1.87877E+03
 1.87442E+03
 1.88460E+03
 1.88815E+03
 1.88572E+03
 1.88758E+03
 1.88692E+03
 1.89060E+03
 1.88967E+03
 1.89298E+03
 1.89065E+03
 1.89635E+03
 1.89738E+03
 1.89705E+03
 1.89338E+03
 1.90478E+03
 1.90753E+03
 1.90590E+03
 1.90775E+03
 1.90593E+03
 1.90720E+03
 1.91203E+03
