 1.56713E+03
 1.56598E+03
 1.56622E+03
 1.56547E+03
 1.56667E+03
 1.56697E+03
 1.56580E+03
 1.56707E+03
 1.56615E+03
 1.56667E+03
 1.56758E+03
 1.56778E+03
 1.56672E+03
 1.56667E+03
 1.56723E+03
 1.56733E+03
 1.56717E+03
 1.56715E+03
 1.56722E+03
 1.56610E+03
 1.56622E+03
 1.56642E+03
 1.56715E+03
 1.56550E+03
 1.56683E+03
 1.56637E+03
 1.56583E+03
 1.56633E+03
 1.56768E+03
 1.56613E+03
 1.56630E+03
 1.56593E+03
 1.56733E+03
 1.56650E+03
 1.56722E+03
 1.56690E+03
 1.56683E+03
 1.56738E+03
 1.56765E+03
 1.56725E+03
 1.56720E+03
 1.56755E+03
 1.56770E+03
 1.56638E+03
 1.56603E+03
 1.56692E+03
 1.56707E+03
 1.56717E+03
 1.56680E+03
 1.56703E+03
 1.56832E+03
 1.56627E+03
 1.56743E+03
 1.56687E+03
 1.56718E+03
 1.56925E+03
 1.59427E+03
 1.74917E+03
 2.06297E+03
 2.01247E+03
 1.70002E+03
 1.58342E+03
 1.56890E+03
 1.56738E+03
 1.56660E+03
 1.56725E+03
 1.56645E+03
 1.56657E+03
 1.56668E+03
 1.56598E+03
 1.56752E+03
 1.56775E+03
 1.56658E+03
 1.56725E+03
 1.56708E+03
 1.56750E+03
 1.56828E+03
 1.57265E+03
 1.58057E+03
 1.60015E+03
 1.64013E+03
 1.70237E+03
 1.79507E+03
 1.92178E+03
 2.07232E+03
 2.19558E+03
 2.26122E+03
 2.28755E+03
 2.28678E+03
 2.29797E+03
 2.29493E+03
 2.29568E+03
 2.30103E+03
 2.29700E+03
 2.28937E+03
 2.27510E+03
 2.27427E+03
 2.26862E+03
 2.28490E+03
 2.29305E+03
 2.31828E+03
 2.33055E+03
 2.34908E+03
 2.36633E+03
 2.38592E+03
 2.40088E+03
 2.41238E+03
 2.43968E+03
 2.46245E+03
 2.47387E+03
 2.46777E+03
 2.44598E+03
 2.40382E+03
 2.38788E+03
 2.37062E+03
 2.36938E+03
 2.36683E+03
 2.37357E+03
 2.41027E+03
 2.42853E+03
 2.42817E+03
 2.43580E+03
 2.43752E+03
 2.44487E+03
 2.42420E+03
 2.40055E+03
 2.39470E+03
 2.39678E+03
 2.39212E+03
 2.39960E+03
 2.40577E+03
 2.40302E+03
 2.41220E+03
 2.42373E+03
 2.45637E+03
 2.50108E+03
 2.53390E+03
 2.55390E+03
 2.52973E+03
 2.51972E+03
 2.48783E+03
 2.48828E+03
 2.48870E+03
 2.48698E+03
 2.48913E+03
 2.48850E+03
 2.48627E+03
 2.49243E+03
 2.49630E+03
 2.50102E+03
 2.50688E+03
 2.51053E+03
 2.52245E+03
 2.52993E+03
 2.56002E+03
 2.59228E+03
 2.62612E+03
 2.64860E+03
 2.66467E+03
 2.70465E+03
 2.76185E+03
 2.84530E+03
 2.91293E+03
 2.92768E+03
 2.85383E+03
 2.78470E+03
 2.72473E+03
 2.68625E+03
 2.64832E+03
 2.62960E+03
 2.60575E+03
 2.60330E+03
 2.57792E+03
 2.57848E+03
 2.56940E+03
 2.57147E+03
 2.57038E+03
 2.58003E+03
 2.57523E+03
 2.57713E+03
 2.58357E+03
 2.59072E+03
 2.61123E+03
 2.63377E+03
 2.68273E+03
 2.75730E+03
 2.90447E+03
 3.23688E+03
 4.18898E+03
 6.13367E+03
 7.13207E+03
 5.37638E+03
 3.53907E+03
 2.94297E+03
 2.90772E+03
 3.18617E+03
 4.01337E+03
 5.82085E+03
 8.15038E+03
 8.38178E+03
 5.91838E+03
 3.83917E+03
 3.07967E+03
 2.85462E+03
 2.77355E+03
 2.71117E+03
 2.69958E+03
 2.70013E+03
 2.70738E+03
 2.72822E+03
 2.74872E+03
 2.75897E+03
 2.79867E+03
 2.83833E+03
 2.87047E+03
 2.84640E+03
 2.76702E+03
 2.70482E+03
 2.65643E+03
 2.59125E+03
 2.50257E+03
 2.38508E+03
 2.28522E+03
 2.22165E+03
 2.21002E+03
 2.21660E+03
 2.23442E+03
 2.26410E+03
 2.30182E+03
 2.33345E+03
 2.38872E+03
 2.44888E+03
 2.53693E+03
 2.69583E+03
 2.96995E+03
 3.45742E+03
 4.55550E+03
 7.75798E+03
 1.72858E+04
 3.53545E+04
 4.33925E+04
 2.81164E+04
 1.25055E+04
 6.33575E+03
 4.36098E+03
 3.55928E+03
 3.17185E+03
 2.91807E+03
 2.75468E+03
 2.65762E+03
 2.55795E+03
 2.49732E+03
 2.46518E+03
 2.44733E+03
 2.43208E+03
 2.44270E+03
 2.43885E+03
 2.40287E+03
 2.35667E+03
 2.32912E+03
 2.31703E+03
 2.31967E+03
 2.32788E+03
 2.33980E+03
 2.35608E+03
 2.38297E+03
 2.39018E+03
 2.36533E+03
 2.31860E+03
 2.26872E+03
 2.24008E+03
 2.24150E+03
 2.25153E+03
 2.26708E+03
 2.28373E+03
 2.29202E+03
 2.28470E+03
 2.28308E+03
 2.26532E+03
 2.24015E+03
 2.22325E+03
 2.20142E+03
 2.18930E+03
 2.16317E+03
 2.12338E+03
 2.10348E+03
 2.08385E+03
 2.07922E+03
 2.08188E+03
 2.07478E+03
 2.08017E+03
 2.09102E+03
 2.09685E+03
 2.10632E+03
 2.11060E+03
 2.11488E+03
 2.09142E+03
 2.08120E+03
 2.06530E+03
 2.06158E+03
 2.04372E+03
 2.04338E+03
 2.03735E+03
 2.03880E+03
 2.03788E+03
 2.03645E+03
 2.03782E+03
 2.01393E+03
 2.00293E+03
 1.99767E+03
 2.00407E+03
 2.01422E+03
 2.01865E+03
 2.02262E+03
 2.02185E+03
 2.04095E+03
 2.04143E+03
 2.05890E+03
 2.06930E+03
 2.08537E+03
 2.08900E+03
 2.10182E+03
 2.11347E+03
 2.11998E+03
 2.10662E+03
 2.09768E+03
 2.08355E+03
 2.06945E+03
 2.04647E+03
 2.03965E+03
 2.03750E+03
 2.05928E+03
 2.07127E+03
 2.07895E+03
 2.08350E+03
 2.08010E+03
 2.06058E+03
 2.05363E+03
 2.04307E+03
 2.02535E+03
 2.02697E+03
 2.03370E+03
 2.03905E+03
 2.05195E+03
 2.05685E+03
 2.07487E+03
 2.08850E+03
 2.09430E+03
 2.10543E+03
 2.10258E+03
 2.08710E+03
 2.07040E+03
 2.05872E+03
 2.04392E+03
 2.02910E+03
 2.01570E+03
 2.01302E+03
 2.00752E+03
 2.00210E+03
 1.99952E+03
 2.00053E+03
 1.99645E+03
 1.99665E+03
 1.99767E+03
 1.99463E+03
 2.00040E+03
 1.99700E+03
 1.99335E+03
 1.99005E+03
 1.99605E+03
 1.99588E+03
 1.99085E+03
 1.99723E+03
 1.99557E+03
 1.99973E+03
 2.00328E+03
 2.00583E+03
 2.00205E+03
 2.00440E+03
 2.00530E+03
 2.00427E+03
 2.01035E+03
 2.00647E+03
 2.01547E+03
 2.01270E+03
 2.01523E+03
 2.03392E+03
 2.04613E+03
 2.07468E+03
 2.13348E+03
 2.23612E+03
 2.38822E+03
 2.56612E+03
 2.77603E+03
 2.97750E+03
 3.09932E+03
 3.13568E+03
 3.11865E+03
 3.10008E+03
 3.10748E+03
 3.10433E+03
 3.10840E+03
 3.11855E+03
 3.13650E+03
 3.14233E+03
 3.15008E+03
 3.15425E+03
 3.17563E+03
 3.17767E+03
 3.16163E+03
 3.15295E+03
 3.11590E+03
 3.03575E+03
 2.88463E+03
 2.70525E+03
 2.54850E+03
 2.41280E+03
 2.34082E+03
 2.25872E+03
 2.22352E+03
 2.18322E+03
 2.14757E+03
 2.11525E+03
 2.08875E+03
 2.05937E+03
 2.03725E+03
 2.00608E+03
 1.98908E+03
 1.96448E+03
 1.94170E+03
 1.91710E+03
 1.89573E+03
 1.87070E+03
 1.84773E+03
 1.83623E+03
 1.82977E+03
 1.81935E+03
 1.81817E+03
 1.81345E+03
 1.81583E+03
 1.81423E+03
 1.80903E+03
 1.81210E+03
 1.80885E+03
 1.80753E+03
 1.81030E+03
 1.80798E+03
 1.80733E+03
 1.80440E+03
 1.80590E+03
 1.80480E+03
 1.80198E+03
 1.80338E+03
 1.80585E+03
 1.80475E+03
 1.80457E+03
 1.80180E+03
 1.80500E+03
 1.80412E+03
 1.80668E+03
 1.80178E+03
 1.80155E+03
 1.80187E+03
 1.80727E+03
 1.80553E+03
 1.80758E+03
 1.80192E+03
 1.80183E+03
 1.80767E+03
 1.79900E+03
 1.80092E+03
 1.79943E+03
 1.80482E+03
 1.80365E+03
 1.80978E+03
 1.80467E+03
 1.80303E+03
 1.79908E+03
 1.80095E+03
 1.80255E+03
 1.79633E+03
 1.80475E+03
 1.79952E+03
 1.79912E+03
 1.80548E+03
 1.79822E+03
 1.80312E+03
 1.80235E+03
 1.80412E+03
 1.80365E+03
 1.80367E+03
 1.80158E+03
 1.80128E+03
 1.80212E+03
 1.79990E+03
 1.80072E+03
 1.80077E+03
 1.80482E+03
 1.80060E+03
 1.80493E+03
 1.80028E+03
 1.80662E+03
 1.80435E+03
 1.81068E+03
 1.80697E+03
 1.80533E+03
 1.80785E+03
 1.80417E+03
 1.81298E+03
 1.80237E+03
 1.81003E+03
 1.81068E+03
 1.80608E+03
 1.80885E+03
 1.81277E+03
 1.80925E+03
 1.81192E+03
 1.81703E+03
 1.81450E+03
 1.81323E+03
 1.81318E+03
 1.81448E+03
 1.81310E+03
 1.81280E+03
 1.81800E+03
 1.81752E+03
 1.81748E+03
 1.81807E+03
 1.82105E+03
 1.81830E+03
 1.82425E+03
 1.82852E+03
 1.82400E+03
 1.82480E+03
 1.82457E+03
 1.82780E+03
 1.82887E+03
 1.82787E+03
 1.83027E+03
 1.83027E+03
 1.83312E+03
 1.83520E+03
 1.83485E+03
 1.83687E+03
 1.83717E+03
 1.83657E+03
 1.84230E+03
 1.84082E+03
 1.84150E+03
 1.84262E+03
 1.84102E+03
 1.84290E+03
 1.84782E+03
 1.84427E+03
 1.85293E+03
 1.85568E+03
 1.84840E+03
 1.85133E+03
 1.84745E+03
 1.84905E+03
 1.85250E+03
 1.84600E+03
 1.85260E+03
 1.84675E+03
 1.85347E+03
 1.85102E+03
 1.85207E+03
 1.84885E+03
 1.84530E+03
 1.84955E+03
 1.84457E+03
 1.85023E+03
 1.84605E+03
 1.84538E+03
 1.84522E+03
 1.84395E+03
 1.84860E+03
 1.84342E+03
 1.84273E+03
 1.84160E+03
 1.84237E+03
 1.84897E+03
 1.84020E+03
 1.84557E+03
 1.84308E+03
 1.83925E+03
 1.84608E+03
 1.84612E+03
 1.84467E+03
 1.84587E+03
 1.85057E+03
 1.84755E+03
 1.84947E+03
 1.85305E+03
 1.85415E+03
 1.84762E+03
 1.84773E+03
 1.85077E+03
 1.84422E+03
 1.84542E+03
 1.84475E+03
 1.84768E+03
 1.84080E+03
 1.84157E+03
 1.84363E+03
 1.84063E+03
 1.83810E+03
 1.84173E+03
 1.84175E+03
 1.84060E+03
 1.84520E+03
 1.84077E+03
 1.84690E+03
 1.84255E+03
 1.84413E+03
 1.84262E+03
 1.84490E+03
 1.84442E+03
 1.84278E+03
 1.84763E+03
 1.84812E+03
 1.84825E+03
 1.84830E+03
 1.85052E+03
 1.85415E+03
 1.85020E+03
 1.85123E+03
 1.85650E+03
 1.85170E+03
 1.85933E+03
 1.86302E+03
 1.86448E+03
 1.86188E+03
 1.86260E+03
 1.86568E+03
 1.87040E+03
 1.87205E+03
 1.87838E+03
 1.87882E+03
 1.87283E+03
 1.87575E+03
 1.88598E+03
 1.88330E+03
 1.88702E+03
 1.88643E+03
 1.89278E+03
 1.89378E+03
 1.89307E+03
 1.89648E+03
 1.89393E+03
 1.89545E+03
 1.90027E+03
 1.89450E+03
 1.89607E+03
 1.89832E+03
 1.89765E+03
 1.89597E+03
 1.89310E+03
 1.88848E+03
 1.89562E+03
 1.89405E+03
 1.88202E+03
 1.88135E+03
 1.87648E+03
 1.88003E+03
 1.87313E+03
 1.86457E+03
 1.86402E+03
 1.85617E+03
 1.85370E+03
 1.84662E+03
 1.84297E+03
 1.84302E+03
 1.84267E+03
 1.82980E+03
 1.82973E+03
 1.83202E+03
 1.82590E+03
 1.82160E+03
 1.82132E+03
 1.81933E+03
 1.81690E+03
 1.81220E+03
 1.81057E+03
 1.81605E+03
 1.80750E+03
 1.80973E+03
 1.81055E+03
 1.80813E+03
 1.80652E+03
 1.80718E+03
 1.80798E+03
 1.80753E+03
 1.80878E+03
 1.81042E+03
 1.80757E+03
 1.80700E+03
 1.80633E+03
 1.80787E+03
 1.80795E+03
 1.80710E+03
 1.80952E+03
 1.80575E+03
 1.80813E+03
 1.80667E+03
 1.80672E+03
 1.80805E+03
 1.80657E+03
 1.80597E+03
 1.80297E+03
 1.80722E+03
 1.80547E+03
 1.80732E+03
 1.80380E+03
 1.80638E+03
 1.80643E+03
 1.80828E+03
 1.80320E+03
 1.80693E+03
 1.80895E+03
 1.80985E+03
 1.80620E+03
 1.80748E+03
 1.81208E+03
 1.80978E+03
 1.81092E+03
 1.80958E+03
 1.80987E+03
 1.81212E+03
 1.81333E+03
 1.81607E+03
 1.81313E+03
 1.81562E+03
 1.81000E+03
 1.81700E+03
 1.81542E+03
 1.81347E+03
 1.81425E+03
 1.81503E+03
 1.81325E+03
 1.81707E+03
 1.81833E+03
 1.81437E+03
 1.81555E+03
 1.81827E+03
 1.82125E+03
 1.81968E+03
 1.81942E+03
 1.82507E+03
 1.82287E+03
 1.82197E+03
 1.81742E+03
 1.82375E+03
 1.82442E+03
 1.82643E+03
 1.82392E+03
 1.82423E+03
 1.82593E+03
 1.82505E+03
 1.82280E+03
 1.82733E+03
 1.82733E+03
 1.82578E+03
 1.82512E+03
 1.82578E+03
 1.82705E+03
 1.82508E+03
 1.82745E+03
 1.82948E+03
 1.83095E+03
 1.82880E+03
 1.82645E+03
 1.83057E+03
 1.82975E+03
 1.83247E+03
 1.82900E+03
 1.83265E+03
 1.83428E+03
 1.83282E+03
 1.83093E+03
 1.83210E+03
 1.83465E+03
 1.83905E+03
 1.83500E+03
 1.83888E+03
 1.84377E+03
 1.83913E+03
 1.83803E+03
 1.84535E+03
 1.84193E+03
 1.84213E+03
 1.83965E+03
 1.84382E+03
 1.84322E+03
 1.85058E+03
 1.85042E+03
 1.84968E+03
 1.84790E+03
 1.84562E+03
 1.85230E+03
 1.84652E+03
 1.85173E+03
 1.84495E+03
 1.85125E+03
 1.85108E+03
 1.85053E+03
 1.85335E+03
 1.85232E+03
 1.85383E+03
 1.85575E+03
 1.85653E+03
 1.85530E+03
 1.85170E+03
 1.85393E+03
 1.85807E+03
 1.85622E+03
 1.85188E+03
 1.85995E+03
 1.85965E+03
 1.86135E+03
 1.86238E+03
 1.85970E+03
 1.85940E+03
 1.86012E+03
 1.86427E+03
 1.85810E+03
 1.86223E+03
 1.86222E+03
 1.86355E+03
 1.86332E+03
 1.86573E+03
 1.86937E+03
 1.86482E+03
 1.86888E+03
 1.86945E+03
 1.86767E+03
 1.86702E+03
 1.87220E+03
 1.87228E+03
 1.87088E+03
 1.87135E+03
 1.86997E+03
 1.87755E+03
 1.87618E+03
 1.87062E+03
 1.88263E+03
 1.87625E+03
 1.88575E+03
 1.87972E+03
 1.88335E+03
 1.88273E+03
 1.88543E+03
 1.87990E+03
 1.88250E+03
 1.88598E+03
 1.88618E+03
 1.89117E+03
 1.88315E+03
 1.88670E+03
 1.88265E+03
 1.88793E+03
 1.89097E+03
 1.88965E+03
 1.89583E+03
 1.88877E+03
 1.89032E+03
 1.89360E+03
 1.89248E+03
 1.89437E+03
 1.89640E+03
 1.89238E+03
 1.89660E+03
 1.89105E+03
 1.89225E+03
 1.89183E+03
 1.89983E+03
 1.90198E+03
 1.89705E+03
 1.90127E+03
 1.90317E+03
 1.90202E+03
 1.90002E+03
 1.90102E+03
 1.90298E+03
 1.90795E+03
 1.90753E+03
 1.90910E+03
 1.91133E+03
 1.90770E+03
 1.91338E+03
 1.91733E+03
 1.91417E+03
 1.91910E+03
 1.91943E+03
 1.92232E+03
 1.91812E+03
 1.91988E+03
 1.92083E+03
 1.92047E+03
 1.92085E+03
 1.92562E+03
 1.92307E+03
 1.92778E+03
 1.92668E+03
 1.93113E+03
 1.92935E+03
 1.93573E+03
 1.93040E+03
 1.93027E+03
 1.92812E+03
 1.93160E+03
 1.93397E+03
 1.93210E+03
 1.93395E+03
 1.93178E+03
 1.94183E+03
 1.93733E+03
 1.94333E+03
 1.93403E+03
 1.93785E+03
 1.94182E+03
 1.94528E+03
 1.94223E+03
 1.94412E+03
 1.94347E+03
 1.94357E+03
 1.95033E+03
 1.94440E+03
 1.95012E+03
 1.94963E+03
 1.95290E+03
 1.95537E+03
 1.94933E+03
 1.95385E+03
 1.95310E+03
 1.95682E+03
 1.95627E+03
 1.96435E+03
 1.95987E+03
 1.96048E+03
 1.95940E+03
 1.96878E+03
 1.96857E+03
 1.96453E+03
 1.95843E+03
 1.96887E+03
 1.97143E+03
 1.97165E+03
 1.97678E+03
 1.97365E+03
 1.97518E+03
 1.97672E+03
 1.97200E+03
 1.97938E+03
 1.97535E+03
 1.98162E+03
 1.97823E+03
 1.97662E+03
 1.98648E+03
 1.98197E+03
 1.98167E+03
 1.98180E+03
 1.98500E+03
 1.98752E+03
 1.98963E+03
 1.98817E+03
 1.99350E+03
 1.99547E+03
 1.99635E+03
 1.99767E+03
 1.99782E+03
 1.99717E+03
 1.99693E+03
 1.99920E+03
 2.00208E+03
 2.00282E+03
 2.00642E+03
 2.00185E+03
 2.00548E+03
 2.00315E+03
 2.01002E+03
 2.00833E+03
 2.00757E+03
 2.01725E+03
 2.01420E+03
 2.01918E+03
 2.01263E+03
 2.01588E+03
 2.01763E+03
 2.02365E+03
 2.02137E+03
 2.01975E+03
 2.02608E+03
 2.02550E+03
 2.02493E+03
 2.02797E+03
 2.02660E+03
 2.03523E+03
 2.03043E+03
 2.03467E+03
 2.03397E+03
 2.03335E+03
 2.04157E+03
 2.04407E+03
 2.04007E+03
 2.04775E+03
 2.04272E+03
 2.04000E+03
 2.04420E+03
 2.05047E+03
 2.05343E+03
 2.04837E+03
 2.04967E+03
 2.05300E+03
 2.05573E+03
 2.06360E+03
 2.06192E+03
 2.05635E+03
 2.06308E+03
 2.06182E+03
 2.06612E+03
 2.06393E+03
 2.06570E+03
 2.06905E+03
 2.07125E+03
 2.06735E+03
 2.06893E+03
 2.06952E+03
 2.06583E+03
 2.07548E+03
 2.07825E+03
 2.08407E+03
 2.07990E+03
 2.07608E+03
 2.08105E+03
 2.08347E+03
 2.08243E+03
 2.08160E+03
 2.09292E+03
 2.09148E+03
 2.09642E+03
 2.09252E+03
 2.09273E+03
 2.10355E+03
 2.10600E+03
 2.10708E+03
 2.09858E+03
 2.09993E+03
 2.10177E+03
 2.10488E+03
 2.11055E+03
 2.10687E+03
 2.11047E+03
 2.11915E+03
 2.11628E+03
 2.11322E+03
 2.11615E+03
 2.12687E+03
 2.12405E+03
 2.12493E+03
 2.12507E+03
 2.13525E+03
 2.13490E+03
 2.12368E+03
 2.13565E+03
 2.13452E+03
 2.13787E+03
 2.13565E+03
 2.13887E+03
 2.14577E+03
 2.14552E+03
 2.14827E+03
 2.14662E+03
 2.15043E+03
 2.14785E+03
 2.15298E+03
 2.15560E+03
 2.15417E+03
 2.16217E+03
 2.16392E+03
 2.17147E+03
 2.16165E+03
 2.17280E+03
 2.16638E+03
 2.16557E+03
 2.16757E+03
 2.17083E+03
 2.17748E+03
 2.18800E+03
 2.18043E+03
 2.18180E+03
 2.18850E+03
 2.18303E+03
 2.18888E+03
 2.18833E+03
 2.19672E+03
 2.19568E+03
 2.19355E+03
 2.19883E+03
 2.20153E+03
 2.20275E+03
 2.19618E+03
 2.19815E+03
 2.20833E+03
 2.20418E+03
 2.21270E+03
 2.20485E+03
 2.21255E+03
 2.21105E+03
 2.21157E+03
 2.21303E+03
 2.21160E+03
 2.21972E+03
 2.22547E+03
 2.21993E+03
 2.22300E+03
 2.23092E+03
 2.23238E+03
 2.23742E+03
 2.23792E+03
 2.23430E+03
 2.24797E+03
 2.24397E+03
 2.24598E+03
 2.24502E+03
 2.24957E+03
 2.24675E+03
 2.25315E+03
 2.25373E+03
 2.25247E+03
 2.25775E+03
 2.26125E+03
 2.26227E+03
 2.26945E+03
 2.26327E+03
 2.26957E+03
 2.27022E+03
 2.28057E+03
 2.27380E+03
 2.27510E+03
 2.28755E+03
 2.28387E+03
 2.28545E+03
 2.28588E+03
 2.28870E+03
 2.29128E+03
 2.28908E+03
 2.28762E+03
 2.29298E+03
 2.29468E+03
 2.29595E+03
 2.29922E+03
 2.30855E+03
 2.30287E+03
 2.30723E+03
 2.31305E+03
 2.31328E+03
 2.30920E+03
 2.31043E+03
 2.32023E+03
 2.30878E+03
 2.32355E+03
 2.32133E+03
 2.31945E+03
 2.31853E+03
 2.32632E+03
 2.33378E+03
 2.32847E+03
 2.33082E+03
 2.33642E+03
 2.33962E+03
 2.33713E+03
 2.33740E+03
 2.33935E+03
 2.34938E+03
 2.35073E+03
 2.34902E+03
 2.35138E+03
 2.35468E+03
 2.35707E+03
 2.36057E+03
 2.36422E+03
 2.36658E+03
 2.36835E+03
 2.36465E+03
 2.36608E+03
 2.38195E+03
 2.37198E+03
 2.36718E+03
 2.37555E+03
 2.37800E+03
 2.37780E+03
 2.37522E+03
 2.38488E+03
 2.38685E+03
 2.38862E+03
 2.38792E+03
 2.39363E+03
 2.39287E+03
 2.40572E+03
 2.39590E+03
 2.39560E+03
 2.40145E+03
 2.40862E+03
 2.41357E+03
 2.40778E+03
 2.41945E+03
 2.42003E+03
 2.40457E+03
 2.41953E+03
 2.41335E+03
 2.41208E+03
 2.41220E+03
 2.41898E+03
 2.43020E+03
 2.42537E+03
 2.43093E+03
 2.43145E+03
 2.43470E+03
 2.43062E+03
 2.43947E+03
 2.43718E+03
 2.44135E+03
 2.44150E+03
 2.44285E+03
 2.45263E+03
 2.44697E+03
 2.45285E+03
 2.45302E+03
 2.45085E+03
 2.45152E+03
 2.45630E+03
 2.45163E+03
 2.46622E+03
 2.46633E+03
 2.47155E+03
 2.46570E+03
 2.47048E+03
 2.47412E+03
 2.47352E+03
 2.47607E+03
 2.48357E+03
 2.48258E+03
 2.48870E+03
 2.48383E+03
 2.48542E+03
 2.49098E+03
 2.49337E+03
 2.49458E+03
 2.50455E+03
 2.50192E+03
 2.50108E+03
 2.50320E+03
 2.50635E+03
 2.50455E+03
 2.51442E+03
 2.50255E+03
 2.50057E+03
 2.51267E+03
 2.51397E+03
 2.51673E+03
 2.52467E+03
 2.52053E+03
 2.53270E+03
 2.53212E+03
 2.52552E+03
 2.53318E+03
 2.52998E+03
 2.52772E+03
 2.53422E+03
 2.52813E+03
 2.53230E+03
 2.52817E+03
 2.55138E+03
 2.54802E+03
 2.54008E+03
 2.54285E+03
 2.55782E+03
 2.54930E+03
 2.55313E+03
 2.55542E+03
 2.55695E+03
 2.55193E+03
 2.56000E+03
 2.56117E+03
 2.57117E+03
 2.56725E+03
 2.57292E+03
 2.57032E+03
 2.57273E+03
 2.57905E+03
 2.57842E+03
 2.57627E+03
 2.58078E+03
 2.58647E+03
 2.58413E+03
 2.58733E+03
 2.58625E+03
 2.59407E+03
 2.57972E+03
 2.59400E+03
 2.59587E+03
 2.59980E+03
 2.58972E+03
 2.60172E+03
 2.59882E+03
 2.61100E+03
 2.61133E+03
 2.60570E+03
 2.61893E+03
 2.61268E+03
 2.61672E+03
 2.60477E+03
 2.61755E+03
 2.62437E+03
 2.62318E+03
 2.63313E+03
 2.63193E+03
 2.63418E+03
 2.63298E+03
 2.63797E+03
 2.64503E+03
 2.64012E+03
 2.64317E+03
 2.64298E+03
 2.64790E+03
 2.64970E+03
 2.65805E+03
 2.66015E+03
 2.65725E+03
 2.65770E+03
 2.66242E+03
 2.66397E+03
 2.67940E+03
 2.67087E+03
 2.66413E+03
 2.67830E+03
 2.67830E+03
 2.66458E+03
 2.66773E+03
 2.68003E+03
 2.67470E+03
 2.68013E+03
 2.68552E+03
 2.68260E+03
 2.69360E+03
 2.68680E+03
 2.69417E+03
 2.70837E+03
 2.69310E+03
 2.68897E+03
 2.70008E+03
 2.70657E+03
 2.70015E+03
 2.71015E+03
 2.69790E+03
 2.71252E+03
 2.72145E+03
 2.72092E+03
 2.71125E+03
 2.71785E+03
 2.72408E+03
 2.72658E+03
 2.72587E+03
 2.72082E+03
 2.74010E+03
 2.73092E+03
 2.72973E+03
 2.74087E+03
 2.73897E+03
 2.74197E+03
 2.73962E+03
 2.73873E+03
 2.74417E+03
 2.74333E+03
 2.75643E+03
 2.75172E+03
 2.75483E+03
 2.74853E+03
 2.75475E+03
 2.75825E+03
 2.76027E+03
 2.76782E+03
 2.76553E+03
 2.76520E+03
 2.77750E+03
 2.77517E+03
 2.76822E+03
 2.77463E+03
 2.77115E+03
 2.76755E+03
 2.77725E+03
 2.77032E+03
 2.77662E+03
 2.77277E+03
 2.77177E+03
 2.77257E+03
 2.77438E+03
 2.78348E+03
 2.77983E+03
 2.78598E+03
 2.78130E+03
 2.79608E+03
 2.79442E+03
 2.80663E+03
 2.80960E+03
 2.80948E+03
 2.80962E+03
 2.81395E+03
 2.81410E+03
 2.81440E+03
 2.82440E+03
 2.81677E+03
 2.81593E+03
 2.82513E+03
 2.82205E+03
 2.82278E+03
 2.83407E+03
 2.83308E+03
 2.84095E+03
 2.85548E+03
 2.83980E+03
 2.85847E+03
 2.85172E+03
 2.85053E+03
 2.84687E+03
 2.84767E+03
 2.85765E+03
 2.85102E+03
 2.85550E+03
 2.86228E+03
 2.86433E+03
 2.85502E+03
 2.86747E+03
 2.87265E+03
 2.86587E+03
 2.86698E+03
 2.87560E+03
 2.87588E+03
 2.86913E+03
 2.87757E+03
 2.88157E+03
 2.88227E+03
 2.88805E+03
 2.88018E+03
 2.88833E+03
 2.89748E+03
 2.89865E+03
 2.89930E+03
 2.89680E+03
 2.91255E+03
 2.90742E+03
 2.90202E+03
 2.90992E+03
 2.91703E+03
 2.91497E+03
 2.91348E+03
 2.92452E+03
 2.92742E+03
 2.92513E+03
 2.92918E+03
 2.92213E+03
 2.93088E+03
 2.93520E+03
 2.93820E+03
 2.93622E+03
 2.94920E+03
 2.94643E+03
 2.94570E+03
 2.96325E+03
 2.94962E+03
 2.94570E+03
 2.96840E+03
 2.95898E+03
 2.96540E+03
 2.96780E+03
 2.96997E+03
 2.97958E+03
 2.97713E+03
 2.97875E+03
 2.97885E+03
 2.98605E+03
 2.97545E+03
 2.98530E+03
 2.97138E+03
 2.97838E+03
 3.00015E+03
 2.98832E+03
 2.98152E+03
 2.98180E+03
 2.99577E+03
 2.98375E+03
 2.99558E+03
 2.99683E+03
 2.99640E+03
 3.00115E+03
 2.99688E+03
 2.99952E+03
 2.99972E+03
 3.00970E+03
 3.00808E+03
 3.01708E+03
 3.01872E+03
 3.02613E+03
 3.02757E+03
 3.03062E+03
 3.02907E+03
 3.03698E+03
 3.02995E+03
 3.03933E+03
 3.04502E+03
 3.05097E+03
 3.05220E+03
 3.05658E+03
 3.05847E+03
 3.07208E+03
 3.06248E+03
 3.06510E+03
 3.06913E+03
 3.07375E+03
 3.07068E+03
 3.08852E+03
 3.10623E+03
 3.08115E+03
 3.10075E+03
 3.09873E+03
 3.10055E+03
 3.10553E+03
 3.11592E+03
 3.11007E+03
 3.11610E+03
 3.11673E+03
 3.11357E+03
 3.12513E+03
 3.12815E+03
 3.12675E+03
 3.12757E+03
 3.13818E+03
 3.14308E+03
 3.14195E+03
 3.13680E+03
 3.13953E+03
 3.15213E+03
 3.14032E+03
 3.14462E+03
 3.14743E+03
 3.15220E+03
 3.15052E+03
 3.15660E+03
 3.14788E+03
 3.16068E+03
 3.16072E+03
 3.16093E+03
 3.17208E+03
 3.17237E+03
 3.17360E+03
 3.17988E+03
 3.18918E+03
 3.18512E+03
 3.18470E+03
 3.19472E+03
 3.19097E+03
 3.20818E+03
 3.21095E+03
 3.20712E+03
 3.20595E+03
 3.21567E+03
 3.21860E+03
 3.22650E+03
 3.24082E+03
 3.24440E+03
 3.23998E+03
 3.24945E+03
 3.25332E+03
 3.25685E+03
 3.26092E+03
 3.25745E+03
 3.25667E+03
 3.27022E+03
 3.27798E+03
 3.27012E+03
 3.28955E+03
 3.27850E+03
 3.28090E+03
 3.29352E+03
 3.29142E+03
 3.31095E+03
 3.30350E+03
 3.30387E+03
 3.30012E+03
 3.30482E+03
 3.29650E+03
 3.31458E+03
 3.31740E+03
 3.32983E+03
 3.32068E+03
 3.33608E+03
 3.33075E+03
 3.31902E+03
 3.33637E+03
