-62.7139009482758	1583.19995117188
-61.9051566961938	1581.69995117188
-61.0965321880555	1581.80004882813
-60.2880273830719	1581.80004882813
-59.4796422404985	1581.30004882813
-58.6713767195827	1580.59997558594
-57.8632307796084	1580.69995117188
-57.0552043798756	1580.80004882813
-56.2472974797005	1580.80004882813
-55.4395100384073	1581.30004882813
-54.6318420153527	1578.69995117188
-53.8242933699012	1578.69995117188
-53.0168640614377	1580.69995117188
-52.2095540493672	1582
-51.4023632931106	1579.59997558594
-50.5952917521094	1580.40002441406
-49.7883393858126	1580.90002441406
-48.981506153702	1582.09997558594
-48.1747920152711	1582.69995117188
-47.3681969300174	1581.90002441406
-46.5617208574909	1582.5
-45.7553637572173	1581.59997558594
-44.9491255887585	1582
-44.1430063117126	1578.59997558594
-43.3370058856657	1581.90002441406
-42.5311242702318	1583.80004882813
-41.7253614250532	1582.30004882813
-40.919717309772	1580.09997558594
-40.1141918840747	1582.09997558594
-39.3087851076272	1578.90002441406
-38.50349694014	1581.09997558594
-37.6983273413435	1581.80004882813
-36.8932762709679	1582.09997558594
-36.0883436887716	1581.59997558594
-35.2835295545328	1580.90002441406
-34.4788338280379	1578.30004882813
-33.6742564691092	1579.40002441406
-32.8697974375527	1579.09997558594
-32.065456693235	1582
-31.2612341960059	1580.19995117188
-30.4571299057518	1580.59997558594
-29.6531437823625	1578.90002441406
-28.8492757857562	1582
-28.0455258758666	1581.19995117188
-27.2418940126398	1582.59997558594
-26.4383801560453	1579.30004882813
-25.6349842660648	1580.19995117188
-24.831706302712	1581.59997558594
-24.0285462259923	1580.69995117188
-23.2255039959469	1582.19995117188
-22.4225795726371	1579.69995117188
-21.6197729161159	1580.69995117188
-20.8170839864923	1579.69995117188
-20.0145127438671	1579.90002441406
-19.2120591483569	1582.5
-18.4097231601103	1581.80004882813
-17.6075047392754	1580.30004882813
-16.8054038460445	1581.59997558594
-16.0034204405975	1581.09997558594
-15.2015544831422	1580.80004882813
-14.3998059339263	1580.90002441406
-13.5981747531729	1582.30004882813
-12.7966609011454	1584.59997558594
-11.9952643381427	1582.69995117188
-11.1939850244436	1579.5
-10.3928229203705	1581.40002441406
-9.59177798624968	1578.69995117188
-8.79085018241915	1581.30004882813
-7.99003946927283	1581.90002441406
-7.18934580715603	1580.59997558594
-6.38876915650218	1579.19995117188
-5.58830947771621	1580.69995117188
-4.7879667312308	1583
-3.98774087749839	1583.69995117188
-3.18763187697906	1579.90002441406
-2.3876396901727	1583.69995117188
-1.58776427757481	1594.80004882813
-0.788005599700565	1646.59997558594
0.0116363828950661	1699.19995117188
0.811161709681627	1676.19995117188
1.61057042006881	1612.59997558594
2.40986255348279	1584.90002441406
3.20903814931001	1580.40002441406
4.0080972469373	1580.5
4.80703988570378	1581.80004882813
5.60586610497709	1581.30004882813
6.4045759440691	1581.90002441406
7.20316944229614	1581.30004882813
8.00164663895091	1581.5
8.8000075733025	1581.80004882813
9.59825228462444	1582.30004882813
10.3963808121426	1580.5
11.1943931950833	1581.19995117188
11.9922894726614	1583.69995117188
12.7900696840679	1583.09997558594
13.5877338684706	1581.90002441406
14.3852820650375	1582.5
15.182714312893	1582.19995117188
15.9800306511623	1580.90002441406
16.7772311189707	1580.40002441406
17.5743157553841	1583.40002441406
18.3712845994971	1581
19.1681376903403	1583.09997558594
19.9648750669692	1580.5
20.7614967684117	1581.40002441406
21.5580028336642	1581.90002441406
22.3543933017116	1580.5
23.1506682115352	1581.69995117188
23.946827602073	1581.19995117188
24.7428715122755	1581.59997558594
25.5387999810618	1580.90002441406
26.3346130473513	1583.30004882813
27.1303107500042	1582
27.9258931279052	1581.5
28.7213602199155	1580.09997558594
29.5167120648609	1583.80004882813
30.3119487015719	1580.59997558594
31.1070701688515	1581.19995117188
31.9020765054751	1581
32.6969677502192	1582.09997558594
33.4917439418563	1581
34.286405119104	1580.80004882813
35.0809513206802	1582.09997558594
35.8753825852997	1580.90002441406
36.6696989516537	1582.09997558594
37.4639004584062	1583.59997558594
38.2579871442057	1581
39.0519590477056	1582.90002441406
39.8458162075117	1580.19995117188
40.6395586622385	1581.80004882813
41.4331864504695	1581.80004882813
42.2266996107804	1581.80004882813
43.020098181724	1584.40002441406
43.8133822018335	1581.40002441406
44.6065517096349	1581
45.399606743635	1581.19995117188
46.1925473423293	1580.59997558594
46.9853735441739	1579.90002441406
47.7780853876417	1580.19995117188
48.5706829111543	1582.40002441406
49.3631661531582	1579.59997558594
50.1555351520404	1579.90002441406
50.9477899461968	1579.5
51.7399305739961	1580.30004882813
52.5319570738077	1581.80004882813
53.3238694839578	1581.80004882813
54.1156678427893	1581.5
54.907352188594	1580.69995117188
55.6989225596684	1581.59997558594
56.49037899429	1581.5
57.2817215307169	1585.19995117188
58.0729502071921	1584.30004882813
58.8640650619313	1584.80004882813
59.6550661331592	1591
60.4459534590652	1590
61.2367270778198	1601.5
62.0273870275939	1602.80004882813
62.8179333465357	1608.59997558594
63.608366072754	1618.30004882813
64.3986852443745	1637.40002441406
65.1888908994879	1652.19995117188
65.9789830761776	1666.40002441406
66.768961812512	1687.19995117188
67.5588271465205	1710.09997558594
68.3485791162531	1739.40002441406
69.1382177597209	1770.30004882813
69.927743114904	1791.30004882813
70.7171552198153	1840.5
71.5064541123886	1871.80004882813
72.2956398306026	1921.5
73.0847124123691	1984.80004882813
73.8736718956207	2021.19995117188
74.6625183182431	2101.19995117188
75.4512517181428	2169.30004882813
76.2398721331634	2225.89990234375
77.0283796011813	2282.39990234375
77.816774160018	2383.80004882813
78.605055847504	2442.89990234375
79.3932247014389	2503.80004882813
80.1812807596069	2557.30004882813
80.9692240597936	2593
81.7570546397415	2624
82.544772537194	2652.60009765625
83.3323777898797	2692.10009765625
84.119870435508	2676
84.9072505117736	2708
85.694518056348	2700
86.4816731068841	2687.19995117188
87.2687157010394	2697.69995117188
88.0556458764327	2699.80004882813
88.842463670684	2667.19995117188
89.62916912139	2685.89990234375
90.4157622661209	2692.30004882813
91.2022431424438	2691.5
91.9886117879148	2715.39990234375
92.7748682400671	2687
93.5610125364152	2693.60009765625
94.3470447144507	2696.5
95.1329648116661	2717.60009765625
95.9187728655311	2713.89990234375
96.7044689134968	2694.60009765625
97.4900529930029	2716.69995117188
98.2755251414669	2692.10009765625
99.0608853962949	2728.89990234375
99.8461337948903	2714
100.631270374602	2711.89990234375
101.416295172812	2711
102.201208226846	2716.10009765625
102.986009574034	2699.69995117188
103.770699251696	2679.30004882813
104.555277297115	2714.69995117188
105.339743747575	2689.19995117188
106.124098640344	2686.60009765625
106.908342012662	2682.30004882813
107.692473901762	2652.80004882813
108.476494344871	2669.80004882813
109.260403379177	2666.39990234375
110.044201041864	2670.39990234375
110.827887370112	2658.89990234375
111.611462401067	2649.80004882813
112.394926171863	2645.89990234375
113.178278719621	2640.89990234375
113.961520081465	2649.19995117188
114.744650294472	2657.10009765625
115.527669395708	2640.5
116.310577422247	2635.69995117188
117.093374411127	2647.80004882813
117.876060399384	2640.19995117188
118.658635424023	2639.30004882813
119.441099522035	2645.19995117188
120.223452730408	2632
121.005695086118	2656.5
121.7878266261	2643
122.569847387293	2652.10009765625
123.351757406607	2636.89990234375
124.133556720964	2625.89990234375
124.915245367244	2637.10009765625
125.696823382317	2642.80004882813
126.47829080304	2638
127.259647666253	2644.39990234375
128.040894008794	2645.89990234375
128.822029867458	2648.89990234375
129.603055279032	2636.30004882813
130.383970280326	2630.5
131.164774908088	2613
131.945469199052	2627.5
132.726053189977	2611.10009765625
133.506526917558	2607.89990234375
134.286890418516	2593.5
135.067143729524	2638.39990234375
135.847286887255	2622.10009765625
136.627319928376	2612.89990234375
137.407242889522	2615.60009765625
138.187055807313	2579
138.966758718358	2596.89990234375
139.746351659268	2584.80004882813
140.525834666596	2588.5
141.30520777693	2581.30004882813
142.084471026795	2603.5
142.86362445275	2596.80004882813
143.64266809129	2586.5
144.421601978938	2581.5
145.200426152165	2588.60009765625
145.979140647444	2570.39990234375
146.757745501252	2578.60009765625
147.536240750002	2613
148.314626430139	2577.30004882813
149.09290257807	2576
149.871069230182	2568.69995117188
150.64912642286	2558.39990234375
151.427074192476	2558.60009765625
152.204912575375	2557.5
152.982641607891	2546.30004882813
153.760261326349	2563.19995117188
154.537771767044	2541.5
155.315172966276	2538.5
156.092464960306	2556.10009765625
156.869647785398	2543.80004882813
157.646721477813	2532.89990234375
158.423686073753	2551
159.200541609446	2542.69995117188
159.977288121092	2526.69995117188
160.753925644856	2535
161.530454216931	2542.19995117188
162.306873873458	2515.80004882813
163.083184650571	2513.39990234375
163.859386584401	2537.80004882813
164.635479711053	2523
165.411464066621	2510.80004882813
166.187339687171	2514.19995117188
166.963106608783	2510
167.738764867499	2513.89990234375
168.514314499351	2517.89990234375
169.28975554035	2509.69995117188
170.065088026502	2497.39990234375
170.840311993801	2504.39990234375
171.615427478215	2497
172.390434515702	2509.19995117188
173.165333142202	2501.30004882813
173.940123393653	2505.89990234375
174.714805305949	2525
175.489378915003	2511.60009765625
176.263844256691	2534.69995117188
177.038201366889	2507.5
177.812450281438	2503.10009765625
178.586591036192	2473.80004882813
179.360623666951	2498.39990234375
180.134548209543	2501.89990234375
180.908364699762	2490.19995117188
181.682073173375	2497.69995117188
182.455673666155	2497.10009765625
183.229166213836	2495.80004882813
184.002550852171	2502.30004882813
184.77582761687	2482.60009765625
185.548996543638	2503.5
186.322057668161	2476.19995117188
187.095011026114	2467.19995117188
187.867856653168	2478.39990234375
188.640594584964	2490
189.413224857118	2488.19995117188
190.185747505265	2501.19995117188
190.958162564996	2484.10009765625
191.730470071885	2500.89990234375
192.502670061538	2493.5
193.274762569472	2509
194.046747631254	2509.89990234375
194.818625282407	2516.10009765625
195.590395558432	2517.30004882813
196.362058494843	2517.89990234375
197.133614127112	2553.80004882813
197.90506249071	2549
198.676403621087	2541.30004882813
199.447637553687	2550.30004882813
200.218764323937	2560.69995117188
200.98978396724	2556.60009765625
201.76069651899	2548.39990234375
202.531502014574	2554.10009765625
203.302200489355	2518.30004882813
204.072791978683	2536.30004882813
204.843276517902	2514.19995117188
205.613654142317	2508.19995117188
206.383924887252	2503.10009765625
207.154088787992	2516.39990234375
207.924145879813	2506.80004882813
208.694096197989	2479.80004882813
209.463939777755	2490.5
210.233676654356	2491.80004882813
211.003306863009	2481.30004882813
211.772830438918	2471.10009765625
212.542247417279	2483.30004882813
213.311557833255	2468.39990234375
214.080761722016	2480.10009765625
214.849859118717	2495.19995117188
215.61885005848	2476.89990234375
216.387734576437	2509.30004882813
217.156512707666	2490.80004882813
217.925184487286	2476
218.693749950349	2478.5
219.462209131936	2492.89990234375
220.230562067076	2514.60009765625
220.998808790808	2509.89990234375
221.766949338151	2533.10009765625
222.534983744111	2514.10009765625
223.302912043666	2542.39990234375
224.07073427179	2546
224.838450463455	2561.30004882813
225.606060653593	2570.89990234375
226.373564877141	2579.30004882813
227.140963169021	2589.39990234375
227.908255564124	2573.80004882813
228.675442097347	2583.60009765625
229.442522803565	2571.30004882813
230.209497717622	2559.5
230.976366874378	2579.30004882813
231.743130308656	2555.69995117188
232.509788055283	2569.80004882813
233.276340149049	2558.89990234375
234.042786624749	2552.80004882813
234.80912751715	2542.69995117188
235.575362861021	2517.30004882813
236.341492691089	2547.19995117188
237.107517042103	2519
237.873435948775	2516
238.639249445794	2538.30004882813
239.404957567865	2491.60009765625
240.170560349657	2536.5
240.936057825832	2519.5
241.70145003103	2528.89990234375
242.466736999878	2510.19995117188
243.231918767002	2522.60009765625
243.996995366997	2504.80004882813
244.76196683446	2511.30004882813
245.526833203964	2506.5
246.291594510062	2542.60009765625
247.05625078731	2507.39990234375
247.820802070228	2514
248.585248393349	2498.19995117188
249.349589791163	2512
250.113826298169	2520.69995117188
250.877957948833	2504.80004882813
251.641984777627	2506.60009765625
252.405906818999	2515.30004882813
253.169724107367	2508.19995117188
253.933436677168	2511.89990234375
254.697044562795	2535.19995117188
255.460547798648	2484.89990234375
256.223946419096	2500.39990234375
256.987240458506	2506.19995117188
257.750429951229	2506.19995117188
258.513514931598	2520.39990234375
259.276495433942	2507.39990234375
260.039371492552	2505
260.802143141727	2509.80004882813
261.564810415751	2536.19995117188
262.327373348891	2509.89990234375
263.08983197539	2523.69995117188
263.852186329494	2511.19995117188
264.614436445414	2523.80004882813
265.37658235737	2498.80004882813
266.138624099553	2504.89990234375
266.900561706141	2499.80004882813
267.662395211313	2510.69995117188
268.424124649204	2498.19995117188
269.185750053974	2507.89990234375
269.947271459747	2506.80004882813
270.708688900611	2512.5
271.470002410692	2526.69995117188
272.231212024051	2503.80004882813
272.992317774781	2524.89990234375
273.753319696921	2513.89990234375
274.514217824518	2550.89990234375
275.275012191612	2524.39990234375
276.035702832201	2527.10009765625
276.796289780294	2525.10009765625
277.55677306988	2537.69995117188
278.317152734925	2536.80004882813
279.077428809404	2532.89990234375
279.837601327246	2561.5
280.597670322389	2520.60009765625
281.357635828756	2546.30004882813
282.117497880249	2556.5
282.877256510752	2546.89990234375
283.636911754155	2552.5
284.396463644304	2535.60009765625
285.155912215069	2553.89990234375
285.915257500269	2559.60009765625
286.674499533734	2578.30004882813
287.433638349272	2571.80004882813
288.192673980675	2580.69995117188
288.951606461732	2557.30004882813
289.710435826199	2609.10009765625
290.46916210784	2597.89990234375
291.227785340383	2592.39990234375
291.986305557565	2608.30004882813
292.744722793092	2589.89990234375
293.503037080669	2619.30004882813
294.261248453977	2637.89990234375
295.019356946693	2632.5
295.77736259247	2636.39990234375
296.535265424945	2631.60009765625
297.293065477771	2664
298.050762784545	2689.5
298.808357378879	2675
299.565849294367	2714.19995117188
300.323238564577	2734.60009765625
301.080525223073	2770.10009765625
301.837709303414	2761.39990234375
302.594790839119	2762.69995117188
303.351769863736	2775.10009765625
304.108646410748	2751.80004882813
304.865420513663	2734
305.62209220596	2721.5
306.37866152111	2673.69995117188
307.135128492565	2658.5
307.891493153769	2626.5
308.647755538141	2622.80004882813
309.403915679108	2622.60009765625
310.159973610063	2596.89990234375
310.915929364396	2568.30004882813
311.671782975488	2576.60009765625
312.427534476679	2554.19995117188
313.183183901339	2549.60009765625
313.938731282793	2542.60009765625
314.694176654347	2539.89990234375
315.449520049329	2523.89990234375
316.204761501026	2519.80004882813
316.959901042718	2516.69995117188
317.714938707669	2524.89990234375
318.469874529127	2513.30004882813
319.224708540341	2500.69995117188
319.979440774535	2488.5
320.734071264919	2518.5
321.488600044697	2484.10009765625
322.243027147054	2462.60009765625
322.997352605163	2493.30004882813
323.751576452183	2491.69995117188
324.505698721261	2455.80004882813
325.259719445528	2466
326.013638658113	2457
326.767456392099	2446.89990234375
327.521172680606	2454.80004882813
328.274787556699	2460.19995117188
329.028301053458	2467.80004882813
329.781713203922	2445.10009765625
330.535024041131	2456.30004882813
331.288233598123	2457.69995117188
332.041341907905	2433.80004882813
332.794349003476	2416.19995117188
333.547254917828	2421.19995117188
334.300059683925	2425.5
335.052763334747	2415.69995117188
335.805365903221	2424.89990234375
336.557867422285	2411.60009765625
337.310267924878	2413.30004882813
338.062567443885	2403.60009765625
338.814766012209	2416.80004882813
339.566863662741	2416.60009765625
340.318860428331	2420.69995117188
341.07075634185	2406
341.822551436135	2419.30004882813
342.574245744016	2426.39990234375
343.3258392983	2414.39990234375
344.077332131803	2400.19995117188
344.82872427731	2393.30004882813
345.580015767594	2442.80004882813
346.331206635414	2396.19995117188
347.082296913542	2427.69995117188
347.83328663469	2413.80004882813
348.584175831588	2398.69995117188
349.334964536959	2405.89990234375
350.085652783481	2394.80004882813
350.836240603864	2393
351.586728030765	2380.10009765625
352.337115096842	2393.39990234375
353.087401834739	2409.5
353.837588277101	2393.89990234375
354.587674456536	2413.80004882813
355.337660405656	2395.69995117188
356.087546157051	2388.30004882813
356.837331743307	2387.30004882813
357.587017196989	2362.30004882813
358.336602550651	2371.89990234375
359.086087836833	2378.39990234375
359.835473088065	2351.89990234375
360.584758336867	2349.89990234375
361.333943615742	2345.80004882813
362.08302895717	2341.69995117188
362.832014393636	2345.5
363.580899957613	2333.69995117188
364.329685681534	2334.69995117188
365.078371597846	2332.60009765625
365.826957738978	2308.39990234375
366.575444137328	2309
367.32383082532	2339.30004882813
368.072117835314	2325.19995117188
368.820305199708	2317.69995117188
369.568392950844	2322.80004882813
370.316381121078	2331.10009765625
371.064269742747	2338.10009765625
371.812058848169	2314.89990234375
372.559748469662	2318.89990234375
373.307338639508	2338.10009765625
374.054829390003	2344.80004882813
374.802220753415	2359.19995117188
375.549512762001	2358.5
376.296705447997	2395.80004882813
377.043798843662	2414.30004882813
377.790792981186	2446.89990234375
378.537687892798	2521.19995117188
379.284483610682	2539.19995117188
380.031180167019	2518.30004882813
380.777777593986	2491.89990234375
381.524275923726	2445
382.270675188392	2416
383.016975420113	2409.89990234375
383.763176651007	2370.60009765625
384.509278913174	2349.5
385.255282238714	2301.30004882813
386.001186659699	2289.60009765625
386.746992208199	2281.30004882813
387.492698916279	2258.69995117188
388.238306815964	2263.89990234375
388.983815939283	2239.5
389.729226318262	2237.80004882813
390.474537984907	2251.10009765625
391.219750971197	2252.30004882813
391.964865309125	2228.60009765625
392.709881030635	2240.19995117188
393.454798167705	2230.30004882813
394.199616752255	2237.39990234375
394.944336816227	2242.80004882813
395.688958391531	2242.10009765625
396.43348151007	2275.89990234375
397.177906203724	2258.69995117188
397.922232504378	2290.60009765625
398.666460443904	2298.5
399.410590054144	2335.60009765625
400.154621366949	2372.10009765625
400.898554414133	2426.69995117188
401.642389227516	2489.69995117188
402.386125838895	2562.30004882813
403.129764280069	2644.30004882813
403.87330458281	2709.5
404.616746778878	2735.10009765625
405.360090900029	2701.69995117188
406.103336978007	2625.19995117188
406.846485044534	2505.39990234375
407.589535131318	2433.10009765625
408.33248727007	2393
409.075341492485	2347.5
409.818097830215	2322
410.560756314946	2300.69995117188
411.30331697832	2264.5
412.045779851996	2235.30004882813
412.78814496757	2233.89990234375
413.530412356674	2245.89990234375
414.272582050914	2233.30004882813
415.014654081868	2222.30004882813
415.756628481117	2187.10009765625
416.498505280235	2207.60009765625
417.240284510756	2201.19995117188
417.981966204233	2168.80004882813
418.723550392204	2196.69995117188
419.465037106161	2178.30004882813
420.20642637762	2179.39990234375
420.947718238064	2172
421.688912718979	2159.30004882813
422.430009851832	2159.69995117188
423.171009668064	2153.10009765625
423.911912199132	2156.10009765625
424.652717476453	2155.30004882813
425.393425531442	2154.69995117188
426.134036395519	2145.89990234375
426.874550100051	2144.39990234375
427.614966676439	2146.5
428.355286156046	2147.80004882813
429.095508570213	2141.89990234375
429.835633950301	2144.30004882813
430.575662327629	2144.60009765625
431.315593733513	2135.30004882813
432.055428199269	2141.39990234375
432.79516575618	2136.19995117188
433.534806435535	2150.60009765625
434.274350268599	2120.30004882813
435.013797286635	2140.19995117188
435.753147520876	2121.10009765625
436.49240100256	2121.60009765625
437.231557762909	2130.30004882813
437.970617833129	2108.10009765625
438.709581244415	2098.10009765625
439.448448027946	2085.69995117188
440.187218214903	2088.89990234375
440.92589183644	2083.10009765625
441.664468923703	2074.10009765625
442.402949507835	2077.19995117188
443.141333619937	2077.60009765625
443.87962129114	2082.89990234375
444.617812552533	2075.5
445.355907435201	2063.10009765625
446.093905970231	2055.69995117188
446.831808188666	2061.60009765625
447.569614121575	2058.60009765625
448.307323799974	2034.59997558594
449.044937254906	2056.60009765625
449.782454517382	2028.40002441406
450.519875618386	2035.90002441406
451.257200588935	2026.5
451.994429459983	2014.5
452.731562262497	1998.30004882813
453.468599027448	1998
454.205539785762	2003.09997558594
454.942384568364	1993.19995117188
455.679133406181	1995.5
456.415786330113	1992.09997558594
457.152343371057	1977.40002441406
457.88880455989	1973.30004882813
458.625169927478	1967.09997558594
459.361439504676	1955.5
460.09761332234	1962.80004882813
460.833691411287	1965.40002441406
461.569673802358	1956.5
462.305560526338	1963.40002441406
463.041351614043	1943.19995117188
463.777047096251	1953.69995117188
464.512647003724	1956.59997558594
465.248151367243	1954.69995117188
465.983560217537	1950.69995117188
466.718873585351	1945.90002441406
467.454091501415	1942.30004882813
468.189213996432	1957
468.924241101112	1941.69995117188
469.659172846146	1940.19995117188
470.394009262194	1945.30004882813
471.128750379939	1938.80004882813
471.863396230024	1938
472.597946843098	1945.59997558594
473.332402249784	1925.80004882813
474.066762480703	1940.69995117188
474.801027566466	1945.30004882813
475.535197537653	1940.90002441406
476.269272424858	1930.19995117188
477.00325225865	1948.40002441406
477.737137069577	1931.90002441406
478.470926888195	1931.40002441406
479.204621745045	1938.40002441406
479.938221670628	1937.09997558594
480.671726695478	1946.09997558594
481.405136850083	1956.69995117188
482.138452164932	1972.69995117188
482.871672670501	1950.19995117188
483.604798397252	1970.30004882813
484.337829375646	1982.19995117188
485.070765636107	1993.59997558594
485.803607209075	1990.09997558594
486.536354124967	1988.40002441406
487.269006414173	1993
488.001564107108	2017.5
488.734027234144	2025.19995117188
489.466395825643	2032.30004882813
490.198669911977	2049.5
490.930849523484	2064.10009765625
491.662934690501	2052.19995117188
492.394925443341	2083.69995117188
493.126821812329	2090.60009765625
493.858623827761	2091.39990234375
494.590331519922	2103.19995117188
495.321944919081	2137.30004882813
496.053464055514	2153.30004882813
496.784888959473	2169.60009765625
497.516219661186	2201.5
498.247456190897	2226.5
498.978598578811	2264.10009765625
499.709646855146	2302.69995117188
500.440601050095	2352.89990234375
501.171461193833	2409
501.902227316528	2454.19995117188
502.632899448358	2541.19995117188
503.363477619445	2641.10009765625
504.09396185995	2731.39990234375
504.824352199977	2847.39990234375
505.554648669653	2991.39990234375
506.28485129908	3143.89990234375
507.014960118332	3341.30004882813
507.744975157505	3556.30004882813
508.474896446651	3822
509.204724015838	4139
509.934457895102	4541.2998046875
510.664098114473	4925.2001953125
511.393644703979	5444.2001953125
512.123097693625	6139.10009765625
512.8524571134	6882.10009765625
513.5817229933	7792.39990234375
514.310895363302	8839.599609375
515.039974253359	9980.7001953125
515.768959693427	11215.400390625
516.497851713454	12442.400390625
517.226650343351	13621.400390625
517.955355613044	14448.400390625
518.683967552437	14934.599609375
519.412486191426	15038.900390625
520.140911559884	14810.5
520.869243687693	14267.900390625
521.597482604715	13462
522.325628340782	12500.5
523.053680925744	11630
523.78164038942	10856.099609375
524.509506761625	10037.2001953125
525.237280072161	9317
525.964960350817	8633.900390625
526.692547627382	8122.89990234375
527.420041931612	7600.60009765625
528.147443293262	7135.2001953125
528.874751742091	6729.39990234375
529.601967307819	6367.2998046875
530.329090020169	6056.2998046875
531.056119908868	5767.7001953125
531.783057003588	5545
532.509901334044	5300.2998046875
533.236652929901	5123.89990234375
533.963311820817	4923.5
534.689878036465	4759.7998046875
535.416351606469	4600.2001953125
536.142732560473	4505.89990234375
536.869020928089	4381.2998046875
537.595216738929	4229.89990234375
538.321320022598	4150.7998046875
539.047330808665	4052
539.773249126717	3999.89990234375
540.499075006313	3891.10009765625
541.224808477009	3819.5
541.95044956835	3761.10009765625
542.675998309857	3700.89990234375
543.40145473104	3647.39990234375
544.126818861436	3567.80004882813
544.852090730511	3525.39990234375
545.577270367764	3442.89990234375
546.302357802659	3426.10009765625
547.027353064663	3353.39990234375
547.752256183239	3308.10009765625
548.477067187812	3304.60009765625
549.201786107814	3248.89990234375
549.926412972653	3222.60009765625
550.650947811754	3174.10009765625
551.375390654494	3149.69995117188
552.09974153027	3101.10009765625
552.824000468456	3086.10009765625
553.5481674984	3043.30004882813
554.272242649456	3013.39990234375
554.996225950963	2995.5
555.720117432252	2999.60009765625
556.443917122643	2925.80004882813
557.167625051428	2935.69995117188
557.89124124792	2898.5
558.614765741376	2909.89990234375
559.3381985611	2869.80004882813
560.06153973633	2857.19995117188
560.784789296321	2861.10009765625
561.507947270315	2816.89990234375
562.231013687542	2799.89990234375
562.953988577198	2807.10009765625
563.676871968518	2761.60009765625
564.399663890665	2769.60009765625
565.122364372854	2762.5
565.844973444239	2738.30004882813
566.567491133975	2719.39990234375
567.289917471227	2677.39990234375
568.012252485127	2683.69995117188
568.734496204801	2668.80004882813
569.456648659367	2681.89990234375
570.178709877929	2675.89990234375
570.900679889578	2639.19995117188
571.622558723409	2638.60009765625
572.344346408487	2633.5
573.066042973876	2605.39990234375
573.78764844862	2600.10009765625
574.509162861765	2614
575.230586242344	2583
575.951918619353	2553.69995117188
576.673160021821	2572.60009765625
577.394310478736	2564.10009765625
578.115370019079	2534.10009765625
578.836338671829	2532.60009765625
579.557216465943	2517.69995117188
580.278003430379	2514.80004882813
580.998699594069	2500.19995117188
581.719304985947	2494.39990234375
582.439819634936	2516.80004882813
583.160243569933	2497.19995117188
583.880576819845	2484.80004882813
584.600819413553	2490.69995117188
585.32097137993	2483.30004882813
586.041032747848	2465.10009765625
586.761003546151	2449.80004882813
587.48088380368	2460.80004882813
588.200673549283	2433.5
588.920372811767	2446.30004882813
589.639981619929	2443.39990234375
590.359500002592	2434.69995117188
591.078927988529	2428.5
591.798265606525	2418.5
592.517512885339	2403.10009765625
593.236669853727	2429.89990234375
593.95573654044	2411.89990234375
594.674712974199	2384.10009765625
595.393599183747	2393.5
596.11239519777	2388.10009765625
596.831101044983	2406.69995117188
597.549716754081	2405.19995117188
598.26824235374	2389.10009765625
598.98667787261	2361.60009765625
599.705023339376	2376
600.423278782672	2358.80004882813
601.141444231131	2380.69995117188
601.859519713381	2369.39990234375
602.577505258041	2366.60009765625
603.295400893706	2358.60009765625
604.013206648983	2354.89990234375
604.730922552435	2365.5
605.448548632654	2356
606.166084918174	2369.5
606.883531437575	2356.30004882813
607.600888219382	2381.80004882813
608.318155292113	2364.39990234375
609.035332684308	2380.30004882813
609.752420424455	2386.39990234375
610.469418541054	2393.69995117188
611.186327062598	2403.30004882813
611.903146017554	2432.39990234375
612.619875434398	2462.69995117188
613.336515341567	2491.60009765625
614.053065767511	2510.30004882813
614.769526740666	2551.69995117188
615.485898289448	2565
616.20218044227	2595.80004882813
616.918373227529	2568.30004882813
617.634476673612	2574.39990234375
618.350490808913	2575.60009765625
619.066415661782	2558.5
619.782251260584	2528.5
620.497997633667	2534.19995117188
621.213654809367	2513.19995117188
621.929222816006	2513.10009765625
622.644701681901	2478.30004882813
623.360091435352	2488.19995117188
624.075392104664	2464.89990234375
624.790603718103	2453.39990234375
625.505726303948	2417.10009765625
626.220759890476	2417.69995117188
626.935704505916	2412.19995117188
627.650560178519	2383.69995117188
628.365326936519	2389.89990234375
629.080004808124	2385.19995117188
629.794593821552	2368.30004882813
630.509094004998	2365.39990234375
631.223505386654	2370.89990234375
631.937827994693	2363.5
632.652061857275	2370.39990234375
633.36620700257	2372.10009765625
634.080263458718	2350.10009765625
634.794231253843	2357.69995117188
635.508110416087	2350.30004882813
636.221900973561	2367.19995117188
636.935602954355	2361.5
637.649216386576	2358.39990234375
638.362741298292	2393.10009765625
639.076177717598	2373.89990234375
639.789525672536	2375.19995117188
640.50278519116	2365.39990234375
641.215956301514	2362.69995117188
641.929039031632	2346
642.64203340953	2341.80004882813
643.35493946321	2345.89990234375
644.067757220678	2311.39990234375
644.780486709925	2320.10009765625
645.493127958926	2327.60009765625
646.205680995639	2331.80004882813
646.918145848037	2294.19995117188
647.630522544056	2303.5
648.342811111633	2305
649.055011578701	2307.89990234375
649.767123973165	2307.19995117188
650.479148322934	2293.89990234375
651.191084655898	2297.10009765625
651.902932999953	2295
652.614693382964	2290.60009765625
653.326365832791	2281.19995117188
654.037950377295	2273.80004882813
654.74944704432	2273.5
655.460855861681	2289.60009765625
656.172176857224	2276.80004882813
656.883410058745	2274
657.594555494046	2293.69995117188
658.30561319092	2275.5
659.016583177146	2270.69995117188
659.727465480501	2274.60009765625
660.438260128732	2280
661.148967149593	2267.60009765625
661.859586570831	2269
662.570118420174	2262.80004882813
663.280562725324	2261.69995117188
663.990919514007	2292.10009765625
664.701188813909	2271.19995117188
665.41137065273	2284.10009765625
666.121465058141	2265.10009765625
666.831472057796	2287.39990234375
667.541391679376	2271.80004882813
668.251223950513	2264.80004882813
668.960968898841	2269.69995117188
669.670626551989	2264.10009765625
670.380196937578	2269.80004882813
671.089680083207	2264.89990234375
671.799076016477	2251.60009765625
672.508384764964	2258.19995117188
673.217606356249	2262.39990234375
673.926740817897	2244.60009765625
674.635788177459	2259.19995117188
675.34474846248	2238.60009765625
676.053621700494	2257.89990234375
676.762407919024	2243.10009765625
677.471107145589	2244.80004882813
678.179719407682	2244.60009765625
678.888244732803	2228
679.596683148425	2230.60009765625
680.305034682039	2229.10009765625
681.013299361096	2219.80004882813
681.721477213044	2215.30004882813
682.429568265333	2210.10009765625
683.137572545392	2231.60009765625
683.845490080639	2229.89990234375
684.553320898491	2205.39990234375
685.261065026353	2219.5
685.968722491608	2214.60009765625
686.676293321641	2201.80004882813
687.383777543819	2196.19995117188
688.091175185508	2214.39990234375
688.79848627406	2203.30004882813
689.505710836808	2188.19995117188
690.212848901093	2187.80004882813
690.919900494223	2195.5
691.626865643524	2189.10009765625
692.333744376288	2192.80004882813
693.040536719799	2187.69995117188
693.747242701348	2192.5
694.453862348198	2188.19995117188
695.16039568761	2189.60009765625
695.866842746835	2176.10009765625
696.573203553114	2168.30004882813
697.279478133675	2168.10009765625
697.985666515745	2168.30004882813
698.691768726518	2174.30004882813
699.397784793211	2178.69995117188
700.103714743001	2163.69995117188
700.809558603074	2162.10009765625
701.515316400603	2157.69995117188
702.220988162732	2162.10009765625
702.926573916629	2165.5
703.632073689427	2165.5
704.337487508248	2153.69995117188
705.042815400221	2161.39990234375
705.748057392449	2168
706.453213512036	2165.5
707.158283786077	2138.10009765625
707.863268241641	2154.30004882813
708.568166905805	2158
709.272979805621	2144.39990234375
709.977706968136	2156.10009765625
710.682348420409	2132.69995117188
711.386904189453	2137.39990234375
712.091374302295	2146.60009765625
712.795758785945	2134.89990234375
713.500057667393	2137.19995117188
714.204270973641	2130.5
714.908398731666	2146.10009765625
715.612440968434	2129
716.316397710907	2132.30004882813
717.020268986036	2138.10009765625
717.724054820765	2142.10009765625
718.427755242024	2138
719.131370276728	2156.10009765625
719.834899951789	2131.5
720.538344294117	2154.39990234375
721.241703330586	2150.69995117188
721.944977088095	2141.80004882813
722.648165593498	2136.10009765625
723.351268873672	2143.89990234375
724.054286955466	2146.60009765625
724.757219865713	2135.5
725.460067631248	2134.39990234375
726.162830278897	2134.5
726.86550783547	2134.89990234375
727.568100327768	2145.89990234375
728.270607782582	2149.10009765625
728.973030226702	2149.69995117188
729.675367686896	2144.60009765625
730.377620189928	2148.60009765625
731.079787762547	2144.80004882813
731.781870431496	2148.5
732.483868223524	2152.69995117188
733.185781165331	2128.10009765625
733.887609283649	2146.69995117188
734.589352605173	2147.10009765625
735.291011156596	2151.5
735.992584964618	2142.80004882813
736.694074055901	2146.5
737.395478457107	2156.80004882813
738.096798194898	2147
738.798033295921	2127.39990234375
739.499183786808	2157.19995117188
740.200249694185	2148.5
740.90123104467	2132
741.602127864867	2152.30004882813
742.302940181382	2137.60009765625
743.003668020789	2136.5
743.704311409674	2125.10009765625
744.404870374607	2114.19995117188
745.105344942138	2118.5
745.805735138816	2126.30004882813
746.506040991188	2122.89990234375
747.206262525766	2139
747.906399769091	2113.69995117188
748.606452747654	2129.69995117188
749.306421487971	2133.39990234375
750.006306016521	2125
750.706106359788	2124
751.405822544243	2107.5
752.105454596342	2114.89990234375
752.805002542551	2125.80004882813
753.504466409294	2093.89990234375
754.203846223007	2116.69995117188
754.903142010129	2108.10009765625
755.602353797054	2105.89990234375
756.301481610189	2116.30004882813
757.000525475938	2113.39990234375
757.699485420669	2118.19995117188
758.398361470773	2107.19995117188
759.097153652604	2119.19995117188
759.795861992515	2120.69995117188
760.494486516866	2103.80004882813
761.193027251979	2103.89990234375
761.891484224186	2102.30004882813
762.589857459796	2116.10009765625
763.288146985132	2122
763.986352826478	2120.30004882813
764.684475010132	2103.89990234375
765.382513562363	2092.89990234375
766.080468509444	2108.10009765625
766.778339877642	2100.39990234375
767.476127693191	2102
768.173831982344	2103.80004882813
768.871452771315	2113.60009765625
769.568990086353	2102.5
770.266443953652	2109.5
770.96381439941	2092.89990234375
771.661101449832	2083.69995117188
772.358305131092	2103.10009765625
773.055425469364	2088.30004882813
773.75246249082	2107.69995117188
774.449416221606	2095.30004882813
775.146286687862	2105.89990234375
775.843073915743	2100.19995117188
776.539777931358	2116.60009765625
777.236398760835	2102
777.932936430263	2109.5
778.629390965762	2103.19995117188
779.325762393404	2116.5
780.022050739272	2121
780.718256029441	2117.69995117188
781.41437828997	2108
782.110417546895	2125.89990234375
782.806373826278	2111.60009765625
783.502247154126	2116
784.198037556484	2090.69995117188
784.893745059349	2106.80004882813
785.58936968873	2105.60009765625
786.284911470622	2102.30004882813
786.980370431011	2102.30004882813
787.675746595859	2104
788.371039991147	2101.10009765625
789.066250642821	2102.80004882813
789.761378576831	2113.39990234375
790.456423819117	2110.10009765625
791.1513863956	2103.19995117188
791.846266332205	2096.39990234375
792.541063654836	2119.89990234375
793.235778389391	2104.89990234375
793.930410561762	2108.89990234375
794.624960197833	2092.89990234375
795.319427323474	2091.60009765625
796.013811964551	2096.39990234375
796.708114146907	2098.60009765625
797.40233389639	2100.69995117188
798.096471238842	2102.69995117188
798.79052620007	2087.69995117188
799.484498805901	2110.5
800.178389082139	2102.60009765625
800.872197054588	2101.60009765625
801.565922749023	2108.89990234375
802.259566191224	2101.69995117188
802.953127406969	2102.30004882813
803.646606422008	2103.69995117188
804.340003262098	2114.69995117188
805.033317952975	2107.80004882813
805.726550520372	2131.69995117188
806.419700990003	2095
807.112769387595	2093.19995117188
807.805755738843	2107.39990234375
808.49866006944	2099.60009765625
809.191482405076	2106.80004882813
809.88422277143	2116.39990234375
810.576881194161	2104.39990234375
811.269457698919	2095.5
811.961952311371	2100.80004882813
812.654365057149	2108.80004882813
813.346695961871	2098.69995117188
814.038945051174	2114
814.731112350653	2115.69995117188
815.423197885919	2126.89990234375
816.115201682569	2113
816.807123766171	2106.80004882813
817.498964162316	2124
818.19072289655	2112
818.882399994443	2117.89990234375
819.573995481547	2104.39990234375
820.265509383379	2110.80004882813
820.956941725486	2110.69995117188
821.648292533375	2106.60009765625
822.339561832558	2099.80004882813
823.030749648536	2107.10009765625
823.721856006804	2101.39990234375
824.412880932837	2104.5
825.10382445212	2116.5
825.794686590097	2097.5
826.485467372241	2110.19995117188
827.176166823992	2087.69995117188
827.866784970777	2113.5
828.557321838038	2095.10009765625
829.247777451177	2104.89990234375
829.938151835624	2093.60009765625
830.628445016751	2091
831.318657019969	2093.5
832.008787870655	2092.60009765625
832.698837594183	2103
833.388806215912	2093.69995117188
834.078693761194	2088.10009765625
834.768500255374	2086.30004882813
835.4582257238	2083.69995117188
836.147870191784	2074.10009765625
836.837433684642	2081.39990234375
837.526916227697	2085.89990234375
838.216317846247	2081.89990234375
838.90563856556	2067.89990234375
839.594878410948	2073
840.284037407663	2080.19995117188
840.973115580969	2073.10009765625
841.662112956135	2076.10009765625
842.351029558386	2060.69995117188
843.03986541297	2069.80004882813
843.728620545121	2080.60009765625
844.417294980035	2078.39990234375
845.105888742932	2072.10009765625
845.794401859015	2064.80004882813
846.482834353475	2058.80004882813
847.171186251491	2061.5
847.859457578224	2063.89990234375
848.547648358863	2068.19995117188
849.235758618542	2059.5
849.923788382411	2051.89990234375
850.611737675612	2051.5
851.299606523267	2063.69995117188
851.987394950502	2052.30004882813
852.675102982419	2068.89990234375
853.362730644116	2075.19995117188
854.050277960686	2069.10009765625
854.73774495722	2069.30004882813
855.425131658784	2068.80004882813
856.112438090452	2063
856.799664277266	2077.60009765625
857.486810244278	2061.10009765625
858.173876016532	2056.10009765625
858.860861619043	2052.30004882813
859.547767076843	2069
860.234592414935	2050.19995117188
860.921337658336	2048.69995117188
861.608002832018	2054.80004882813
862.294587960973	2051.39990234375
862.981093070179	2049.89990234375
863.667518184609	2055.80004882813
864.353863329203	2071.89990234375
865.040128528923	2056.89990234375
865.726313808692	2064
866.412419193466	2063.89990234375
867.098444708146	2054.5
867.784390377646	2062.30004882813
868.470256226889	2053.19995117188
869.156042280744	2065.5
869.841748564106	2054.10009765625
870.52737510187	2054.30004882813
871.212921918874	2053
871.898389039994	2064.10009765625
872.583776490082	2056
873.269084293973	2053.30004882813
873.95431247651	2050.5
874.639461062505	2063.5
875.324530076774	2059.5
876.009519544126	2046.5
876.694429489357	2057.30004882813
877.379259937261	2054.89990234375
878.064010912615	2070.19995117188
878.748682440183	2050.69995117188
879.433274544733	2044.19995117188
880.117787251016	2057.30004882813
880.80222058378	2054
881.486574567763	2068.5
882.170849227671	2063.60009765625
882.855044588251	2044.19995117188
883.539160674186	2052.10009765625
884.223197510195	2047.5
884.907155120962	2049.5
885.591033531171	2056.10009765625
886.274832765495	2046.80004882813
886.958552848595	2049.60009765625
887.642193805129	2053.39990234375
888.325755659756	2051.39990234375
889.009238437097	2067.89990234375
889.69264216179	2058.30004882813
890.375966858459	2050.10009765625
891.05921255171	2055
891.742379266147	2056.69995117188
892.425467026369	2041.40002441406
893.108475856964	2046.90002441406
893.791405782504	2040.40002441406
894.47425682756	2058.39990234375
895.157029016686	2043.19995117188
895.839722374442	2074.80004882813
896.522336925368	2051.10009765625
897.204872693993	2060.69995117188
897.887329704847	2055.69995117188
898.56970798244	2043.09997558594
899.252007551288	2042.09997558594
899.934228435889	2056.19995117188
900.616370660725	2052
901.298434250281	2059.10009765625
901.980419229033	2039.19995117188
902.662325621442	2043.40002441406
903.344153451966	2043.09997558594
904.025902745038	2054.19995117188
904.707573525121	2048.80004882813
905.38916581662	2039.59997558594
906.070679643969	2051.10009765625
906.752115031587	2052
907.433472003851	2056.80004882813
908.114750585181	2054.30004882813
908.795950799954	2060.69995117188
909.477072672544	2057.89990234375
910.158116227322	2046.30004882813
910.839081488643	2042.19995117188
911.519968480874	2055.39990234375
912.200777228343	2067.69995117188
912.881507755388	2062.39990234375
913.56216008633	2056.60009765625
914.242734245492	2075.39990234375
914.923230257182	2057.69995117188
915.603648145702	2067.19995117188
916.283987935328	2045.90002441406
916.964249650367	2063.30004882813
917.644433315066	2059.39990234375
918.32453895371	2069.10009765625
919.004566590548	2077
919.684516249827	2070.39990234375
920.364387955784	2079.30004882813
921.044181732656	2083.10009765625
921.723897604661	2098.30004882813
922.403535596016	2080.89990234375
923.083095730926	2082.10009765625
923.762578033575	2102
924.441982528173	2110.89990234375
925.121309238884	2112.39990234375
925.80055818988	2115.60009765625
926.47972940532	2144
927.158822909369	2155.80004882813
927.837838726166	2162.10009765625
928.516776879852	2212
929.195637394536	2223.5
929.874420294365	2267
930.553125603427	2268.19995117188
931.231753345839	2329.19995117188
931.910303545691	2346.39990234375
932.58877622706	2351.5
933.267171414039	2392.30004882813
933.945489130687	2412.5
934.623729401051	2449.89990234375
935.30189224921	2469.69995117188
935.979977699183	2503.60009765625
936.65798577502	2546.80004882813
937.335916500732	2575.89990234375
938.013769900351	2603.30004882813
938.691545997873	2649.60009765625
939.369244817307	2676.10009765625
940.04686638264	2685.69995117188
940.724410717862	2721.39990234375
941.401877846939	2729.19995117188
942.079267793845	2748.19995117188
942.756580582539	2748.5
943.433816236957	2719.60009765625
944.110974781056	2727.19995117188
944.788056238766	2703.19995117188
945.465060633993	2707.10009765625
946.14198799068	2712.19995117188
946.81883833272	2710.80004882813
947.495611684005	2694.19995117188
948.172308068441	2683.89990234375
948.848927509892	2706.5
949.525470032251	2690.10009765625
950.201935659377	2706.89990234375
950.878324415116	2680.19995117188
951.554636323327	2690.19995117188
952.23087140784	2698.5
952.907029692508	2709.39990234375
953.583111201129	2687.69995117188
954.259115957528	2696.80004882813
954.935043985511	2683.19995117188
955.610895308881	2689
956.286669951416	2688.80004882813
956.962367936915	2702.80004882813
957.637989289129	2702.5
958.313534031837	2708.19995117188
958.989002188794	2694.80004882813
959.664393783731	2709.39990234375
960.33970884042	2708.89990234375
961.014947382557	2703.5
961.690109433892	2705.19995117188
962.365195018122	2697.30004882813
963.040204158952	2714.10009765625
963.7151368801	2738.19995117188
964.389993205233	2697.30004882813
965.064773158038	2741
965.739476762191	2703.19995117188
966.414104041351	2706.30004882813
967.088655019178	2753.39990234375
967.763129719324	2701.5
968.437528165413	2737.89990234375
969.111850381096	2711.10009765625
969.786096389978	2733
970.460266215685	2724.89990234375
971.134359881814	2714
971.808377411963	2736.60009765625
972.482318829734	2711.60009765625
973.156184158693	2732.60009765625
973.829973422425	2748.10009765625
974.50368664448	2736.60009765625
975.177323848433	2742.89990234375
975.850885057816	2740.60009765625
976.52437029617	2736.10009765625
977.19777958703	2741.60009765625
977.871112953928	2719
978.544370420364	2711.89990234375
979.217552009852	2722.69995117188
979.890657745885	2712.19995117188
980.563687651959	2713.39990234375
981.236641751556	2721.89990234375
981.90952006815	2712.19995117188
982.582322625191	2716.89990234375
983.255049446159	2675.5
983.927700554494	2684.60009765625
984.600275973625	2680.69995117188
985.272775727006	2639.5
985.94519983804	2607.89990234375
986.617548330156	2600.80004882813
987.289821226759	2572.60009765625
987.962018551241	2534.30004882813
988.634140327005	2500.69995117188
989.306186577432	2484.10009765625
989.978157325887	2452.39990234375
990.650052595743	2420.69995117188
991.321872410361	2387.5
991.993616793089	2358.80004882813
992.665285767264	2328.89990234375
993.336879356229	2299.10009765625
994.008397583305	2278.10009765625
994.679840471808	2252.60009765625
995.351208045055	2253.69995117188
996.022500326332	2229.69995117188
996.693717338944	2239
997.364859106176	2213.19995117188
998.035925651307	2194.60009765625
998.706916997592	2202.80004882813
999.377833168301	2195.5
1000.04867418669	2161.10009765625
1000.71944007598	2164.5
1001.39013085945	2159.30004882813
1002.06074656029	2144.69995117188
1002.73128720173	2139
1003.40175280699	2130.39990234375
1004.07214339926	2133.5
1004.74245900175	2114.10009765625
1005.41269963763	2105.5
1006.08286533009	2099.5
1006.7529561023	2103.69995117188
1007.42297197742	2094.89990234375
1008.09291297862	2082
1008.76277912902	2064
1009.43257045178	2077.30004882813
1010.10228697001	2059.10009765625
1010.77192870685	2062.5
1011.44149568541	2085.39990234375
1012.11098792881	2062.5
1012.78040546011	2040.19995117188
1013.44974830243	2047.5
1014.11901647884	2034.80004882813
1014.78821001242	2036.69995117188
1015.45732892623	2034.69995117188
1016.12637324335	2024.09997558594
1016.79534298679	2027.59997558594
1017.46423817963	2016.69995117188
1018.13305884486	2018.40002441406
1018.80180500556	2016.40002441406
1019.4704766847	2000.69995117188
1020.13907390532	2000.59997558594
1020.8075966904	1994.19995117188
1021.47604506294	1992.5
1022.14441904593	1994.80004882813
1022.81271866235	1991.59997558594
1023.48094393516	1978.69995117188
1024.14909488733	1975.40002441406
1024.8171715418	1960.30004882813
1025.48517392152	1974.5
1026.15310204944	1968.80004882813
1026.82095594848	1954
1027.48873564156	1945.09997558594
1028.15644115158	1953.40002441406
1028.82407250146	1941.59997558594
1029.49162971411	1945.09997558594
1030.15911281239	1943.30004882813
1030.82652181921	1933.5
1031.49385675741	1922.40002441406
1032.16111764989	1937.80004882813
1032.82830451948	1929.09997558594
1033.49541738904	1925.69995117188
1034.16245628141	1921
1034.82942121943	1919.5
1035.49631222591	1920.19995117188
1036.16312932368	1909.59997558594
1036.82987253555	1911.5
1037.49654188431	1899
1038.16313739276	1914.19995117188
1038.82965908369	1906.80004882813
1039.49610697986	1899.90002441406
1040.16248110407	1895
1040.82878147904	1906.59997558594
1041.49500812757	1899.59997558594
1042.16116107238	1897.5
1042.8272403362	1901.69995117188
1043.49324594177	1906.59997558594
1044.15917791182	1896.59997558594
1044.82503626906	1899.40002441406
1045.49082103618	1900.19995117188
1046.15653223589	1887.90002441406
1046.8221698909	1891.80004882813
1047.48773402386	1887.30004882813
1048.15322465745	1890.59997558594
1048.81864181436	1886
1049.48398551722	1882.69995117188
1050.1492557887	1893.80004882813
1050.81445265143	1888.30004882813
1051.47957612806	1881.30004882813
1052.14462624119	1879.69995117188
1052.80960301347	1892.5
1053.4745064675	1881.59997558594
1054.13933662588	1894.80004882813
1054.80409351121	1877.80004882813
1055.46877714606	1896.59997558594
1056.13338755304	1884
1056.79792475471	1881.69995117188
1057.46238877362	1885.90002441406
1058.12677963234	1892.30004882813
1058.79109735342	1886.5
1059.45534195939	1875.80004882813
1060.11951347279	1881.40002441406
1060.78361191614	1873.19995117188
1061.44763731197	1870.40002441406
1062.11158968277	1868.30004882813
1062.77546905105	1876.80004882813
1063.43927543931	1876
1064.10300887003	1877
1064.76666936569	1884.09997558594
1065.43025694875	1885.69995117188
1066.09377164169	1875.80004882813
1066.75721346695	1882.69995117188
1067.42058244698	1875.30004882813
1068.08387860422	1879.80004882813
1068.7471019611	1878.90002441406
1069.41025254004	1871.40002441406
1070.07333036347	1873.30004882813
1070.73633545377	1881.80004882813
1071.39926783337	1873.40002441406
1072.06212752465	1875.59997558594
1072.72491454999	1880.69995117188
1073.38762893177	1889.40002441406
1074.05027069236	1874.19995117188
1074.71283985411	1878.59997558594
1075.37533643938	1869.40002441406
1076.03776047052	1871.80004882813
1076.70011196987	1868.30004882813
1077.36239095976	1874
1078.0245974625	1870.30004882813
1078.6867315004	1866.30004882813
1079.34879309579	1882.59997558594
1080.01078227096	1873.5
1080.67269904819	1882.30004882813
1081.33454344977	1867.5
1081.99631549797	1880.40002441406
1082.65801521507	1887
1083.31964262332	1861.09997558594
1083.98119774499	1869.09997558594
1084.6426806023	1868
1085.3040912175	1884.19995117188
1085.96542961282	1870.40002441406
1086.62669581046	1863.59997558594
1087.28788983267	1876.90002441406
1087.94901170163	1865.30004882813
1088.61006143955	1883.5
1089.27103906862	1868.69995117188
1089.93194461101	1868.09997558594
1090.59277808892	1869.5
1091.25353952449	1864.40002441406
1091.91422893989	1877.80004882813
1092.57484635728	1869.5
1093.23539179881	1873.90002441406
1093.89586528659	1880.40002441406
1094.55626684277	1866.69995117188
1095.21659648946	1867.30004882813
1095.87685424879	1853.80004882813
1096.53704014284	1865.69995117188
1097.19715419373	1860.09997558594
1097.85719642355	1869.09997558594
1098.51716685438	1866.69995117188
1099.17706550828	1867.59997558594
1099.83689240734	1871.69995117188
1100.49664757361	1873.80004882813
1101.15633102915	1863.19995117188
