-45.2401887661565	1572.09997558594
-42.2571416371046	1572.69995117188
-39.2751473659741	1572.06665039063
-36.294205364348	1572.5
-33.3143150441689	1572.80004882813
-30.3354758177508	1573.23327636719
-27.3576870977546	1572.06665039063
-24.3809482972486	1572.43334960938
-21.4052588296189	1574.46667480469
-18.4306181086421	1573.46667480469
-15.4570255484567	1573.69995117188
-12.484480563567	1574.96667480469
-9.51298256884248	1576.93334960938
-6.54253097950557	1588.19995117188
-3.57312521115564	1673.53332519531
-0.604764679752472	1969.90002441406
2.36255119837996	2141.2333984375
5.32882300654979	1849.26672363281
8.29405132772162	1619.63330078125
11.2582367444606	1582.16662597656
14.221379838993	1577.16662597656
17.1834811931863	1576.86669921875
20.1445413885255	1575.93334960938
23.1045610061495	1574.96667480469
26.0635406268193	1577.69995117188
29.0214808309505	1576.13330078125
31.9783821985772	1577.19995117188
34.9342453093885	1576.23327636719
37.889070742705	1576.86669921875
40.8428590774668	1577.93334960938
43.7956108922979	1578.73327636719
46.7473267654063	1579.40002441406
49.6980072746767	1580.30004882813
52.6476529976064	1586.23327636719
55.5962645113619	1605.93334960938
58.5438423927148	1676.5
61.4903872181026	1880.33337402344
64.4358995635843	2370.69995117188
67.3803800048697	3288.43334960938
70.3238291172945	4772.7001953125
73.2662474758495	6961.533203125
76.2076356551565	9888.533203125
79.1479942294767	13112.6669921875
82.087323772719	15616.43359375
85.025624858416	16908.30078125
87.9628980597688	17201.833984375
90.8991439495829	17219.267578125
93.8343631003365	17239.466796875
96.7685560841253	17385
99.7017234727059	17448.833984375
102.633865837465	17294.3671875
105.564983749419	17086.1328125
108.49507777925	16764.3671875
111.424148497276	16396.232421875
114.352196473425	16125.7001953125
117.27922227732	15868.7001953125
120.205226478184	15716.1669921875
123.130209644899	15652.900390625
126.054172346	15461.099609375
128.977115149633	15321.7333984375
131.899038623609	15124.06640625
134.819943335381	15018.2333984375
137.73982985205	14807.2333984375
140.658698740338	14652.7666015625
143.576550566638	14497.599609375
146.49338589696	14278
149.409205296978	14124.5
152.324009332002	14003.900390625
155.237798566978	13818.900390625
158.150573566513	13665.7001953125
161.06233489485	13429.7666015625
163.973083115868	13203
166.882818793097	13042.466796875
169.791542489729	12842.7333984375
172.699254768567	12676.7333984375
175.60595619209	12601.033203125
178.5116473224	12417.06640625
181.416328721259	12302.56640625
184.320000950057	12150.033203125
187.222664569858	12098.06640625
190.124320141336	12012.1669921875
193.024968224852	11960.6337890625
195.924609380368	11875.2666015625
198.823244167539	11813.93359375
201.720873145623	11745.6669921875
204.617496873556	11752.099609375
207.513115909906	11740.2001953125
210.407730812889	11728.2666015625
213.301342140378	11720.2998046875
216.19395044987	11752.1669921875
219.085556298543	11893.2333984375
221.976160243188	12054.2333984375
224.865762840274	12362.2666015625
227.754364645889	12750.5
230.641966215796	12940.7001953125
233.528568105389	12963.1337890625
236.414170869724	12950.7666015625
239.298775063472	12847
242.182381241009	12825.400390625
245.064989956303	12777.2998046875
247.946601763011	12794.8330078125
250.827217214431	12702.3662109375
253.706836863485	12696.966796875
256.585461262776	12685.2333984375
259.463090964538	12672.466796875
262.339726520655	12718.533203125
265.215368482684	12686.466796875
268.090017401811	12721.533203125
270.963673828854	12768.8662109375
273.83633831433	12798.6669921875
276.708011408363	12881.033203125
279.578693660757	12943.900390625
282.448385620947	13061.599609375
285.317087838035	13176
288.184800860754	13315.93359375
291.051525237502	13579.7333984375
293.91726151634	13793.2333984375
296.782010244956	14256.033203125
299.645771970707	14817.099609375
302.508547240595	15487.033203125
305.370336601275	15571.966796875
308.231140599056	14895.2333984375
311.090959779906	13977.1669921875
313.949794689425	13353.6669921875
316.807645872888	12825.2998046875
319.664513875216	12448.2666015625
322.520399240978	12145.3330078125
325.375302514399	11866.599609375
328.229224239362	11593.2001953125
331.082164959406	11388.2333984375
333.934125217701	11154.93359375
336.785105557106	10949.2998046875
339.63510652011	10736.6669921875
342.484128648865	10539.6669921875
345.332172485161	10372.1669921875
348.179238570481	10176.099609375
351.025327445927	10018.533203125
353.870439652258	9915.1337890625
356.714575729916	9718.06640625
359.557736218976	9599.1337890625
362.399921659154	9458.400390625
365.241132589866	9341.8330078125
368.081369550147	9201.033203125
370.9206330787	9120.533203125
373.758923713884	9030.400390625
376.596241993719	8859.533203125
379.432588455865	8777.2333984375
382.267963637662	8621.599609375
385.102368076089	8482.3662109375
387.935802307795	8387.033203125
390.76826686907	8241.2998046875
393.599762295869	8159.83349609375
396.430289123809	8018.56689453125
399.259847888169	7947.966796875
402.088439123881	7815
404.916063365514	7680.33349609375
407.742721147318	7607.7998046875
410.568413003215	7503.56689453125
413.393139466752	7431
416.216901071157	7337.39990234375
419.039698349307	7287.06689453125
421.861531833736	7191.5
424.682402056651	7132.06689453125
427.502309549909	7093.466796875
430.321254845016	7061.7001953125
433.139238473162	7032.7001953125
435.956260965177	6908.033203125
438.77232285156	6642.466796875
441.587424662468	6274.66650390625
444.401566927712	5942.966796875
447.214750176775	5657.39990234375
450.026974938794	5353.033203125
452.83824174257	5069.033203125
455.648551116567	4822.36669921875
458.457903588894	4571.13330078125
461.26629968734	4404.89990234375
464.073739939357	4360.533203125
466.880224872035	4363.39990234375
469.685755012153	4447.86669921875
472.49033088614	4494.56689453125
475.293953020089	4524.466796875
478.096621939743	4624.06689453125
480.898338170538	4712.7998046875
483.699102237533	4848.89990234375
486.498914665491	5093.13330078125
489.297775978795	5458
492.095686701534	5923.5
494.892647357429	6640.83349609375
497.688658469877	7751.7333984375
500.483720561944	9605.900390625
503.277834156342	12755.3330078125
506.070999775463	18323.900390625
508.863217941361	28308.966796875
511.654489175756	46524.80078125
514.444814000016	64525
517.2341929352	64530.53515625
520.022626502005	64517.8984375
522.810115220818	64484.16796875
525.596659611673	64439.8671875
528.382260194271	64403.96484375
531.166917487996	64377.3671875
533.950632011879	54066.80078125
536.73340428462	44173.1328125
539.515234824599	37239.43359375
542.296124149831	32390.5
545.076072778037	28703.400390625
547.855081226582	25827.232421875
550.633150012498	23495.80078125
553.410279652488	21625.5
556.186470662915	19990.466796875
558.96172355983	18714.43359375
561.736038858928	17531.033203125
564.509417075582	16666.966796875
567.281858724831	15808.3662109375
570.05336432138	15123.099609375
572.823934379622	14428.2998046875
575.593569413579	13903.7333984375
578.362269936978	13332.466796875
581.130036463186	12946.8662109375
583.896869505276	12515.56640625
586.662769575936	12144.099609375
589.427737187587	11851.1337890625
592.191772852261	11573.7998046875
594.954877081707	11317.466796875
597.717050387307	11182.2001953125
600.478293280132	10977.3662109375
603.238606270918	10911.43359375
605.997989870071	10900.43359375
608.756444587674	10937.5
611.51397093347	11402.033203125
614.270569416885	12218.966796875
617.026240546994	12989.1337890625
619.780984832579	13231.5
622.534802782051	12885.3330078125
625.28769490353	12293.3662109375
628.039661704777	11692.033203125
630.790703693254	11227.7001953125
633.540821376072	10948.3662109375
636.290015260021	10819.2001953125
639.038285851557	10830.6337890625
641.785633656838	10806.43359375
644.53205918164	10616.1337890625
647.277562931475	10391.2998046875
650.022145411487	10197.43359375
652.765807126504	10038.06640625
655.508548581018	9902.533203125
658.250370279212	9868.033203125
660.991272724927	9795.7001953125
663.731256421695	9733.400390625
666.470321872704	9691.2998046875
669.208469580824	9636.099609375
671.945700048608	9557
674.682013778259	9516.400390625
677.417411271689	9357.2666015625
680.151893030452	9181.7666015625
682.885459555808	9020.8662109375
685.618111348654	8914.533203125
688.349848909595	8743.8662109375
691.080672738909	8604.599609375
693.810583336532	8420.43359375
696.539581202094	8337.1337890625
699.267666834878	8187.89990234375
701.994840733876	8096.13330078125
704.721103397717	7973.06689453125
707.446455324753	7884.36669921875
710.17089701297	7759.7001953125
712.894428960055	7699.7333984375
715.617051663367	7593.033203125
718.338765619947	7514.7001953125
721.059571326491	7508.10009765625
723.77946927941	7447.39990234375
726.498459974761	7389.39990234375
729.216543908288	7320.2666015625
731.933721575429	7294.2998046875
734.649993471274	7252.7001953125
737.365360090615	7246.66650390625
740.079821927902	7179
742.793379477287	7132.2001953125
745.506033232575	7092.93310546875
748.217783687274	7051.89990234375
750.928631334558	7047.533203125
753.638576667294	7030.13330078125
756.347620177996	7036.36669921875
759.055762358899	7078.89990234375
761.763003701896	7048
764.469344698568	7060.63330078125
767.174785840164	7065.06689453125
769.879327617621	7063
772.582970521569	7032.2998046875
775.285715042305	7086.66650390625
777.98756166981	7027.86669921875
780.688510893745	7076.2666015625
783.388563203461	7050.7666015625
786.087719087968	7037
788.785979035992	7057.36669921875
791.483343535914	7091.2998046875
794.179813075812	7056.63330078125
796.875388143434	7097.43310546875
799.570069226218	7102.89990234375
802.263856811291	7149.56689453125
804.956751385454	7141.89990234375
807.648753435199	7191.033203125
810.339863446682	7202.93310546875
813.030081905767	7250.43310546875
815.719409297987	7230.2666015625
818.407846108563	7225.89990234375
821.0953928224	7211.2001953125
823.782049924091	7176.7333984375
826.467817897908	7176.13330078125
829.152697227802	7129.5
831.836688397423	7134
834.519791890103	7037.2666015625
837.202008188841	6967.93310546875
839.883337776345	6886.966796875
842.563781134997	6850.83349609375
845.243338746864	6788
847.922011093711	6754.36669921875
850.599798656964	6764.36669921875
853.276701917763	6709.10009765625
855.952721356905	6726.66650390625
858.627857454911	6717.66650390625
861.302110691947	6716.2998046875
863.975481547905	6691.10009765625
866.64797050233	6671.7001953125
869.319578034484	6680
871.990304623295	6692.43310546875
874.660150747378	6671.16650390625
877.329116885059	6672.56689453125
879.997203514329	6673.966796875
882.664411112868	6640.5
885.330740158065	6663.2001953125
887.996191126968	6643.33349609375
890.660764496346	6593.60009765625
893.32446074263	6593
895.987280341944	6623.7666015625
898.649223770116	6616.5
901.310291502651	6586.86669921875
903.970484014752	6566.39990234375
906.629801781296	6642.56689453125
909.288245276875	6621
911.94581497574	6674.10009765625
914.602511351862	6732.43310546875
917.258334878881	6800.2666015625
919.913286030143	6931.93310546875
922.567365278671	7118.7333984375
925.22057309719	7404.89990234375
927.872909958113	8006.43310546875
930.524376333534	8957.599609375
933.174972695261	10263.2666015625
935.824699514769	11762.93359375
938.473557263243	13313.400390625
941.121546411544	14660.966796875
943.768667430247	15437.400390625
946.414920789592	15472.2998046875
949.060306959546	15366.3662109375
951.704826409726	15291.033203125
954.348479609485	15263.3662109375
956.991267027837	15378.2666015625
959.633189133505	15375.7998046875
962.274246394901	15445.93359375
964.914439280131	15546.56640625
967.553768257001	15599.966796875
970.192233792994	15726.033203125
972.829836355309	15753.43359375
975.466576410819	15796.099609375
978.102454426117	15732.1337890625
980.73747086746	15594.6669921875
983.371626200825	15334.2333984375
986.004920891854	14677.2333984375
988.637355405927	13636.2001953125
991.268930208091	12219.6669921875
993.899645763094	10790.533203125
996.529502535374	9732.900390625
999.158500989077	8885.8662109375
1001.78664158804	8368.3330078125
1004.41392479578	7929.533203125
1007.04035107555	7582.56689453125
1009.66592089027	7273.56689453125
1012.29063470255	6966.2001953125
1014.91449297471	6702.7666015625
1017.53749616879	6455.033203125
1020.15964474646	6232.033203125
1022.78093916919	5980.10009765625
1025.40137989804	5753
1028.02096739384	5539.2001953125
1030.6397021171	5349.36669921875
1033.257584528	5161
1035.87461508647	5019.60009765625
1038.49079425209	4911.16650390625
1041.10612248418	4844.39990234375
1043.72060024173	4746.36669921875
1046.33422798343	4712.2333984375
1048.94700616768	4671.5
1051.55893525258	4627.7666015625
1054.17001569593	4586.10009765625
1056.78024795523	4566.7333984375
1059.38963248767	4527.7333984375
1061.99816975014	4536.5
1064.60586019925	4505.39990234375
1067.21270429129	4508.36669921875
1069.81870248227	4477.033203125
1072.42385522787	4493.36669921875
1075.02816298352	4457.43310546875
1077.6316262043	4439.10009765625
1080.23424534501	4423.93310546875
1082.83602086017	4414.66650390625
1085.43695320399	4401.56689453125
1088.03704283036	4411.16650390625
1090.63629019293	4403.966796875
1093.23469574496	4375.2333984375
1095.83225993951	4371.7998046875
1098.42898322928	4352.7666015625
1101.02486606671	4342.89990234375
1103.6199089039	4351.89990234375
1106.2141121927	4324.93310546875
1108.80747638464	4317.63330078125
1111.40000193095	4292.533203125
1113.99168928258	4302.86669921875
1116.58253889016	4285.83349609375
1119.17255120405	4238.2998046875
1121.76172667429	4234.7001953125
1124.35006575066	4198.33349609375
1126.9375688826	4212.89990234375
1129.52423651929	4199.7666015625
1132.11006910959	4176.33349609375
1134.6950671021	4166.533203125
1137.27923094508	4143.466796875
1139.86256108653	4119.533203125
1142.44505797415	4103.93310546875
1145.02672205533	4108.13330078125
1147.60755377718	4057.96655273438
1150.18755358652	4058.30004882813
1152.76672192986	4054.46655273438
1155.34505925343	4034.16674804688
1157.92256600317	4019.69995117188
1160.49924262472	4015.30004882813
1163.07508956343	3993.63330078125
1165.65010726433	3999.10009765625
1168.22429617222	3989.16674804688
1170.79765673155	3975.86669921875
1173.3701893865	3946.33325195313
1175.94189458096	3943.83325195313
1178.51277275854	3939.7333984375
1181.08282436252	3948.93334960938
1183.65204983592	3958.10009765625
1186.22044962147	3943.7666015625
1188.7880241616	3934.53344726563
1191.35477389845	3909.96655273438
1193.92069927386	3932.5
1196.4858007294	3931.10009765625
1199.05007870634	3927.33325195313
1201.61353364565	3930.93334960938
1204.17616598803	3920.89990234375
1206.73797617386	3921.13330078125
1209.29896464328	3927.46655273438
1211.85913183609	3911.36669921875
1214.41847819183	3918.7666015625
1216.97700414974	3892.13330078125
1219.53471014878	3893.7666015625
1222.09159662761	3877.89990234375
1224.64766402461	3880.96655273438
1227.20291277786	3863.03344726563
1229.75734332518	3847.93334960938
1232.31095610407	3840
1234.86375155175	3836.83325195313
1237.41573010517	3805.33325195313
1239.96689220099	3812.06665039063
1242.51723827555	3793.80004882813
1245.06676876494	3802.63330078125
1247.61548410496	3785.7333984375
1250.16338473109	3763.60009765625
1252.71047107857	3788.39990234375
1255.25674358232	3774.93334960938
1257.80220267699	3755.60009765625
1260.34684879693	3753.2333984375
1262.89068237622	3754.16674804688
1265.43370384866	3718.19995117188
1267.97591364773	3702.60009765625
1270.51731220666	3706.53344726563
1273.05789995838	3703.66674804688
1275.59767733554	3690.33325195313
1278.1366447705	3680.43334960938
1280.67480269535	3696.53344726563
1283.21215154188	3682.13330078125
1285.74869174159	3657.80004882813
1288.28442372571	3653.93334960938
1290.8193479252	3645.16674804688
1293.3534647707	3645.43334960938
1295.88677469261	3639.80004882813
1298.41927812099	3631.89990234375
1300.95097548568	3622.46655273438
1303.48186721619	3631.10009765625
1306.01195374178	3616.19995117188
1308.5412354914	3619.83325195313
1311.06971289374	3590.2666015625
1313.59738637719	3589.36669921875
1316.12425636987	3586
1318.65032329961	3588.33325195313
1321.17558759397	3585.53344726563
1323.70004968023	3583.66674804688
1326.22370998537	3562.80004882813
1328.74656893609	3542.30004882813
1331.26862695885	3569.89990234375
1333.78988447977	3558
1336.31034192473	3567.86669921875
1338.82999971932	3555.83325195313
1341.34885828883	3538.7333984375
1343.86691805832	3533.2333984375
1346.38417945251	3531.16674804688
1348.90064289589	3529.16674804688
1351.41630881263	3525.39990234375
1353.93117762666	3523.13330078125
1356.4452497616	3533.66674804688
1358.95852564079	3508.16674804688
1361.47100568733	3493.46655273438
1363.982690324	3508.60009765625
1366.49357997333	3510.60009765625
1369.00367505754	3488.83325195313
1371.51297599862	3490.19995117188
1374.02148321822	3479.03344726563
1376.52919713777	3463.83325195313
1379.03611817839	3455.06665039063
1381.54224676093	3436.16674804688
1384.04758330597	3427.89990234375
1386.55212823381	3436.16674804688
1389.05588196447	3411.96655273438
1391.55884491769	3405.83325195313
1394.06101751295	3414.53344726563
1396.56240016941	3395.2666015625
1399.06299330603	3376.30004882813
1401.56279734144	3378.5
1404.06181269398	3362.2333984375
1406.56003978177	3370.56665039063
1409.05747902262	3359.13330078125
1411.55413083404	3375.13330078125
1414.04999563334	3359.43334960938
1416.54507383748	3342.13330078125
1419.03936586319	3357.43334960938
1421.5328721269	3349.2666015625
1424.02559304479	3354.93334960938
1426.51752903275	3336.7333984375
1429.0086805064	3348.69995117188
1431.49904788109	3358.7333984375
1433.98863157188	3345.06665039063
1436.47743199359	3337.80004882813
1438.96544956074	3331.06665039063
1441.45268468757	3328.2333984375
1443.93913778808	3355.39990234375
1446.42480927597	3344.46655273438
1448.90969956468	3331.93334960938
1451.39380906737	3320.2333984375
1453.87713819694	3325.66674804688
1456.35968736602	3313.86669921875
1458.84145698693	3295.03344726563
1461.32244747178	3290.60009765625
1463.80265923236	3275.63330078125
1466.28209268021	3278.69995117188
1468.7607482266	3254.36669921875
1471.23862628251	3238.06665039063
1473.71572725868	3231.5
1476.19205156556	3241.33325195313
1478.66759961333	3228.63330078125
1481.14237181191	3217.39990234375
1483.61636857094	3203.56665039063
1486.08959029979	3182.53344726563
1488.56203740757	3185.83325195313
1491.03371030312	3175.39990234375
1493.504609395	3165.33325195313
1495.97473509153	3148.30004882813
1498.4440878007	3153.33325195313
1500.9126679303	3148.7666015625
1503.3804758878	3138.80004882813
1505.84751208046	3137.83325195313
1508.31377691521	3118.13330078125
1510.77927079874	3107.30004882813
1513.24399413748	3102.66674804688
1515.70794733758	3104.36669921875
1518.17113080493	3074.83325195313
1520.63354494515	3092.30004882813
1523.09519016358	3078.7666015625
1525.55606686532	3088.30004882813
1528.01617545519	3065.7666015625
1530.47551633774	3079.56665039063
1532.93408991725	3072.7333984375
1535.39189659775	3057.5
1537.84893678299	3064.96655273438
1540.30521087647	3032.80004882813
1542.7607192814	3051.5
1545.21546240076	3048.86669921875
1547.66944063722	3036.69995117188
1550.12265439323	3041.60009765625
1552.57510407094	3021.2333984375
1555.02679007225	3022.56665039063
1557.47771279882	3018.56665039063
1559.92787265198	3023.16674804688
1562.37727003288	3012.66674804688
1564.82590534234	3012.93334960938
1567.27377898094	3003.06665039063
1569.72089134901	2984.63330078125
1572.16724284659	3002.86669921875
1574.61283387349	2994.86669921875
1577.05766482921	2986
1579.50173611304	2982.2333984375
1581.94504812397	2992.16674804688
1584.38760126074	2962.10009765625
1586.82939592183	2961.43334960938
1589.27043250547	2961.33325195313
1591.71071140959	2954.89990234375
1594.1502330319	2947.10009765625
1596.58899776981	2962.2333984375
1599.02700602052	2956.60009765625
1601.46425818091	2940.86669921875
1603.90075464766	2940.80004882813
1606.33649581713	2931.80004882813
1608.77148208546	2929.89990234375
1611.2057138485	2928.69995117188
1613.63919150188	2925.46655273438
1616.07191544093	2912.66674804688
1618.50388606074	2915.63330078125
1620.93510375615	2900.53344726563
1623.3655689217	2889.53344726563
1625.79528195172	2884.96655273438
1628.22424324025	2897.86669921875
1630.65245318109	2886.7333984375
1633.07991216775	2870.93334960938
1635.50662059351	2885.80004882813
1637.93257885141	2864.06665039063
1640.35778733417	2867.2333984375
1642.78224643431	2871.2333984375
1645.20595654406	2852.36669921875
1647.62891805542	2859.33325195313
1650.05113136009	2859.33325195313
1652.47259684955	2854.69995117188
1654.89331491501	2852.06665039063
1657.31328594743	2856.16674804688
1659.73251033749	2840.03344726563
1662.15098847565	2831.83325195313
1664.56872075208	2830.19995117188
1666.98570755671	2836.13330078125
1669.40194927923	2812.30004882813
1671.81744630902	2818.43334960938
1674.23219903527	2828.36669921875
1676.64620784688	2824.89990234375
1679.05947313249	2811.69995117188
1681.47199528049	2803.33325195313
1683.88377467904	2805.60009765625
1686.29481171601	2797.63330078125
1688.70510677902	2799.2333984375
1691.11466025546	2797.39990234375
1693.52347253247	2789.56665039063
1695.93154399686	2775.53344726563
1698.33887503531	2771.80004882813
1700.74546603413	2792.96655273438
1703.15131737945	2777.53344726563
1705.55642945712	2776.5
1707.96080265273	2788.66674804688
1710.36443735164	2774.06665039063
1712.76733393892	2773.60009765625
1715.16949279944	2777.66674804688
1717.57091431778	2759.93334960938
1719.97159887826	2770.80004882813
1722.37154686498	2744.7333984375
1724.77075866177	2736.80004882813
1727.1692346522	2742.66674804688
1729.56697521962	2745.60009765625
1731.96398074709	2741.63330078125
1734.36025161743	2730.06665039063
1736.75578821323	2719.2333984375
1739.15059091682	2725.63330078125
1741.54466011027	2726.86669921875
1743.93799617539	2710.43334960938
1746.33059949376	2716.39990234375
1748.72247044671	2724.56665039063
1751.11360941531	2712.96655273438
1753.50401678037	2703.69995117188
1755.89369292247	2704.96655273438
1758.28263822195	2701.93334960938
1760.67085305887	2690.7666015625
1763.05833781306	2693
1765.4450928641	2684.63330078125
1767.83111859131	2686.30004882813
1770.21641537377	2661.03344726563
1772.60098359033	2691.2666015625
1774.98482361954	2687.63330078125
1777.36793583978	2664.03344726563
1779.75032062909	2669.10009765625
1782.13197836535	2658.63330078125
1784.51290942612	2660.60009765625
1786.89311418877	2658.53344726563
1789.27259303038	2630.39990234375
1791.65134632782	2634.16674804688
1794.02937445768	2643.30004882813
1796.40667779632	2645.60009765625
1798.78325671986	2630.03344726563
1801.15911160415	2633.7666015625
1803.53424282482	2625.66674804688
1805.90865075725	2635.93334960938
1808.28233577656	2621.46655273438
1810.65529825763	2637.03344726563
1813.0275385751	2619.19995117188
1815.39905710336	2620.46655273438
1817.76985421656	2622.30004882813
1820.1399302886	2625.06665039063
1822.50928569314	2615.10009765625
1824.8779208036	2620.2333984375
1827.24583599314	2609.30004882813
1829.61303163468	2601.7333984375
1831.97950810092	2613.2666015625
1834.34526576427	2601.83325195313
1836.71030499695	2591.80004882813
1839.0746261709	2592.2333984375
1841.43822965782	2577.30004882813
1843.80111582919	2595.60009765625
1846.16328505622	2586.66674804688
1848.5247377099	2581
1850.88547416095	2585.7333984375
1853.24549477987	2563.2333984375
1855.60479993693	2576.30004882813
1857.96339000213	2563.36669921875
1860.32126534522	2573.06665039063
1862.67842633576	2565.86669921875
1865.03487334299	2568.2666015625
1867.39060673601	2552.66674804688
1869.74562688358	2553.60009765625
1872.09993415429	2548.2333984375
1874.45352891644	2563.03344726563
1876.80641153813	2543.66674804688
1879.15858238719	2542.06665039063
1881.51004183123	2535.96655273438
1883.8607902376	2534.69995117188
1886.21082797343	2521.7666015625
1888.5601554056	2523.7333984375
1890.90877290074	2529.83325195313
1893.25668082527	2521.7333984375
1895.60387954535	2514.86669921875
1897.9503694269	2499.16674804688
1900.29615083561	2505.5
1902.64122413693	2521.13330078125
1904.98558969606	2520.53344726563
1907.32924787797	2495.56665039063
1909.67219904742	2499
1912.01444356887	2490.10009765625
1914.3559818066	2501.13330078125
1916.69681412463	2491.06665039063
1919.03694088673	2490.66674804688
1921.37636245645	2495.10009765625
1923.71507919711	2488
1926.05309147176	2495.39990234375
1928.39039964327	2495.96655273438
1930.72700407421	2491.10009765625
1933.06290512695	2485.93334960938
1935.39810316362	2496.66674804688
1937.73259854611	2483.7666015625
1940.06639163608	2491.5
1942.39948279493	2494.69995117188
1944.73187238387	2486.13330078125
1947.06356076384	2482.10009765625
1949.39454829555	2481.33325195313
1951.72483533948	2479.93334960938
1954.05442225588	2475.2333984375
1956.38330940476	2461.03344726563
1958.71149714589	2459.63330078125
1961.03898583882	2461.96655273438
1963.36577584285	2450.89990234375
1965.69186751706	2450
1968.01726122028	2444.33325195313
1970.34195731113	2435.30004882813
1972.66595614798	2440.89990234375
1974.98925808898	2443.93334960938
1977.31186349201	2437.10009765625
1979.63377271478	2431.80004882813
1981.95498611472	2425.93334960938
1984.27550404903	2428.43334960938
1986.59532687469	2412.93334960938
1988.91445494847	2428.89990234375
1991.23288862685	2418.63330078125
1993.55062826614	2413.93334960938
1995.86767422238	2419.93334960938
1998.18402685139	2410.93334960938
2000.49968650876	2407.33325195313
2002.81465354985	2406.86669921875
2005.12892832979	2405.03344726563
2007.44251120347	2402.16674804688
2009.75540252556	2398.5
2012.06760265049	2388.06665039063
2014.37911193249	2398.5
2016.6899307255	2391.36669921875
2019.0000593833	2370.06665039063
2021.30949825938	2371.19995117188
2023.61824770704	2382.36669921875
2025.92630807934	2385.03344726563
2028.23367972911	2380.33325195313
2030.54036300895	2372.86669921875
2032.84635827122	2377.93334960938
2035.15166586809	2363.16674804688
2037.45628615144	2375.03344726563
2039.760219473	2381.33325195313
2042.06346618419	2372.19995117188
2044.36602663625	2359.2333984375
2046.66790118021	2367.10009765625
2048.96909016682	2359.7666015625
2051.26959394663	2356.39990234375
2053.56941286997	2368.69995117188
2055.86854728693	2373.2666015625
2058.16699754739	2360.10009765625
2060.46476400098	2356.86669921875
2062.76184699713	2354.36669921875
2065.058246885	2356.66674804688
2067.35396401358	2355.06665039063
2069.64899873161	2353.7333984375
2071.94335138758	2348.69995117188
2074.2370223298	2340.2333984375
2076.53001190631	2338.33325195313
2078.82232046496	2338.7333984375
2081.11394835335	2338.06665039063
2083.40489591888	2341.80004882813
2085.6951635087	2338
2087.98475146976	2335.63330078125
2090.27366014875	2333.03344726563
2092.56188989219	2328.53344726563
2094.84944104631	2329
2097.13631395718	2329.10009765625
2099.4225089706	2312.03344726563
2101.70802643217	2318.30004882813
2103.99286668728	2310.53344726563
2106.27703008104	2313.86669921875
2108.5605169584	2305.39990234375
2110.84332766406	2301.63330078125
2113.1254625425	2300.5
2115.40692193797	2307.7333984375
2117.68770619451	2297.33325195313
2119.96781565593	2310.39990234375
2122.24725066583	2285.36669921875
2124.52601156757	2298.19995117188
2126.80409870431	2291.96655273438
2129.08151241896	2286.13330078125
2131.35825305425	2284.63330078125
2133.63432095264	2288.53344726563
2135.90971645641	2287.10009765625
2138.1844399076	2270.2666015625
2140.45849164803	2276.39990234375
2142.73187201931	2273.69995117188
2145.00458136282	2277.33325195313
2147.27662001972	2277.2666015625
2149.54798833095	2269.86669921875
2151.81868663725	2277.2666015625
2154.0887152791	2267.7333984375
2156.3580745968	2258
2158.62676493042	2267.83325195313
2160.89478661981	2261.86669921875
2163.16214000458	2260.63330078125
2165.42882542414	2269
2167.69484321771	2272.96655273438
2169.96019372424	2265.83325195313
2172.2248772825	2256.43334960938
2174.48889423101	2258.69995117188
2176.7522449081	2249.66674804688
2179.01492965187	2262.2666015625
2181.27694880022	2254.39990234375
2183.53830269079	2246.46655273438
2185.79899166106	2248.89990234375
2188.05901604825	2253.43334960938
2190.31837618938	2248.10009765625
2192.57707242125	2236.86669921875
2194.83510508044	2241.89990234375
2197.09247450333	2235.46655273438
2199.34918102607	2236.2666015625
2201.60522498459	2235.33325195313
2203.86060671463	2229.10009765625
2206.11532655168	2242.33325195313
2208.36938483104	2234.2333984375
2210.62278188778	2224.03344726563
2212.87551805676	2212.86669921875
2215.12759367264	2226.16674804688
2217.37900906984	2221.19995117188
2219.62976458259	2223.03344726563
2221.87986054487	2206.56665039063
2224.1292972905	2209.96655273438
2226.37807515303	2208.06665039063
2228.62619446583	2206.13330078125
2230.87365556206	2207.10009765625
2233.12045877465	2198.19995117188
2235.36660443631	2194.93334960938
2237.61209287956	2199.7666015625
2239.8569244367	2193.80004882813
2242.10109943981	2189.60009765625
2244.34461822076	2198.93334960938
2246.58748111121	2202.93334960938
2248.82968844261	2195.43334960938
2251.07124054618	2194.96655273438
2253.31213775297	2181.03344726563
2255.55238039377	2181.7666015625
2257.79196879919	2187.7333984375
2260.03090329962	2192.93334960938
2262.26918422523	2184.86669921875
2264.50681190599	2174.63330078125
2266.74378667167	2173.56665039063
2268.98010885179	2182.69995117188
2271.2157787757	2176.39990234375
2273.45079677254	2174.10009765625
2275.6851631712	2173.13330078125
2277.9188783004	2182.66674804688
2280.15194248863	2171.10009765625
2282.38435606418	2162.53344726563
2284.61611935512	2163.16674804688
2286.84723268932	2165.2666015625
2289.07769639444	2164.39990234375
2291.30751079794	2161.33325195313
2293.53667622705	2160.56665039063
2295.76519300879	2165.86669921875
2297.99306147001	2159.93334960938
2300.22028193732	2160.43334960938
2302.44685473711	2148.53344726563
2304.6727801956	2154.66674804688
2306.89805863878	2164.46655273438
2309.12269039242	2151.06665039063
2311.34667578211	2146.10009765625
2313.57001513323	2145.7333984375
2315.79270877092	2143.80004882813
2318.01475702017	2146.43334960938
2320.2361602057	2148.33325195313
2322.45691865206	2140.7333984375
2324.6770326836	2128.33325195313
2326.89650262444	2135.36669921875
2329.11532879851	2145.10009765625
2331.33351152953	2140.86669921875
2333.55105114102	2135.5
2335.76794795629	2143.33325195313
2337.98420229842	2131.03344726563
2340.19981449035	2124.10009765625
2342.41478485473	2126.2333984375
2344.62911371408	2121.2666015625
2346.84280139066	2117.63330078125
2349.05584820658	2124.2666015625
2351.26825448369	2121.06665039063
2353.48002054368	2125.2333984375
2355.691146708	2110.10009765625
2357.90163329792	2113.06665039063
2360.11148063452	2113.39990234375
2362.32068903863	2113.93334960938
2364.52925883092	2103.66674804688
2366.73719033183	2108.7666015625
2368.94448386163	2117.2333984375
2371.15113974034	2107.36669921875
2373.35715828782	2102.19995117188
2375.5625398237	2101.93334960938
2377.76728466743	2099.86669921875
2379.97139313824	2098.63330078125
2382.17486555516	2099.30004882813
2384.37770223703	2092.16674804688
2386.57990350247	2103.7666015625
2388.78146966994	2101.66674804688
2390.98240105763	2092.03344726563
2393.18269798359	2090.83325195313
2395.38236076565	2090.83325195313
2397.58138972143	2095.2333984375
2399.77978516836	2087.10009765625
2401.97754742366	2084.89990234375
2404.17467680435	2083.86669921875
2406.37117362728	2080.63330078125
2408.56703820905	2090.53344726563
2410.7622708661	2088.43334960938
2412.95687191466	2087.96655273438
2415.15084167074	2080.96655273438
2417.34418045018	2076.93334960938
2419.53688856861	2079.7666015625
2421.72896634147	2080.13330078125
2423.92041408397	2073.69995117188
2426.11123211117	2068.83325195313
2428.30142073788	2063.86669921875
2430.49098027875	2071.69995117188
2432.67991104822	2072.03344726563
2434.86821336053	2059.80004882813
2437.05588752972	2062.7333984375
2439.24293386965	2060.03344726563
2441.42935269395	2068.2333984375
2443.61514431608	2061.30004882813
2445.80030904931	2057.16674804688
2447.98484720668	2058.10009765625
2450.16875910105	2057.80004882813
2452.3520450451	2052.39990234375
2454.53470535129	2050.03344726563
2456.7167403319	2051.5
2458.898150299	2045.5
2461.07893556448	2046.69995117188
2463.25909644001	2044.93334960938
2465.4386332371	2044.36669921875
2467.61754626704	2047.93334960938
2469.79583584091	2038.53332519531
2471.97350226965	2042.23327636719
2474.15054586395	2043.03332519531
2476.32696693433	2039.86669921875
2478.50276579111	2038.76672363281
2480.67794274441	2036.16662597656
2482.85249810418	2039.76672363281
2485.02643218015	2029.46667480469
2487.19974528187	2039.76672363281
2489.37243771868	2031.03332519531
2491.54450979976	2035
2493.71596183406	2034.13330078125
2495.88679413036	2038.36669921875
2498.05700699723	2028.19995117188
2500.22660074307	2026.66662597656
2502.39557567606	2019.69995117188
2504.56393210422	2030.19995117188
2506.73167033534	2022.69995117188
2508.89879067706	2023.69995117188
2511.06529343678	2021.40002441406
2513.23117892175	2014.80004882813
2515.39644743903	2024.76672363281
2517.56109929543	2026
2519.72513479764	2018.33337402344
2521.88855425212	2011.30004882813
2524.05135796515	2013.96667480469
2526.21354624281	2018.73327636719
2528.37511939102	2006.83337402344
2530.53607771546	2009.46667480469
2532.69642152166	2002.43334960938
2534.85615111494	2003.36669921875
2537.01526680044	2008.69995117188
2539.17376888311	2009.90002441406
2541.3316576677	2008.56665039063
2543.48893345878	2009.59997558594
2545.64559656073	2002
2547.80164727774	1999.23327636719
2549.95708591381	2007.06665039063
2552.11191277276	1994.80004882813
2554.2661281582	2002.40002441406
2556.41973237357	1996.66662597656
2558.57272572212	1995.40002441406
2560.72510850691	1991.56665039063
2562.8768810308	2002.46667480469
2565.02804359649	1990.80004882813
2567.17859650646	1991.63330078125
2569.32854006303	1996.43334960938
2571.47787456831	1979.66662597656
2573.62660032425	1990.83337402344
2575.77471763258	1997.19995117188
2577.92222679487	1973.19995117188
2580.0691281125	1994.56665039063
2582.21542188663	1989.69995117188
2584.3611084183	1985.59997558594
2586.5061880083	1990.33337402344
2588.65066095727	1984.36669921875
2590.79452756565	1988.43334960938
2592.9377881337	1974.96667480469
2595.08044296149	1982.86669921875
2597.22249234891	1982.06665039063
2599.36393659566	1975.40002441406
2601.50477600126	1980.59997558594
2603.64501086504	1979.56665039063
2605.78464148615	1972.36669921875
2607.92366816356	1970.83337402344
2610.06209119605	1965.09997558594
2612.1999108822	1973.26672363281
2614.33712752044	1968.96667480469
2616.47374140899	1960.33337402344
2618.60975284589	1973.5
2620.74516212901	1962.09997558594
2622.87996955602	1967.96667480469
2625.01417542443	1965.66662597656
2627.14778003154	1961.19995117188
2629.28078367448	1958.33337402344
2631.41318665019	1956.19995117188
2633.54498925545	1964.13330078125
2635.67619178683	1960.83337402344
2637.80679454074	1967
2639.93679781339	1950.16662597656
2642.06620190081	1955.26672363281
2644.19500709887	1955.83337402344
2646.32321370324	1943.03332519531
2648.4508220094	1951.03332519531
2650.57783231268	1953.56665039063
2652.7042449082	1952.83337402344
2654.8300600909	1946.06665039063
2656.95527815557	1946.43334960938
2659.07989939677	1949.66662597656
2661.20392410894	1948.46667480469
2663.32735258629	1957.40002441406
2665.45018512287	1941.86669921875
2667.57242201254	1945.13330078125
2669.69406354901	1945.06665039063
2671.81511002577	1939.36669921875
2673.93556173616	1934.23327636719
2676.05541897333	1942.83337402344
2678.17468203024	1938.16662597656
2680.2933511997	1945.93334960938
2682.41142677431	1944.26672363281
2684.52890904651	1938.86669921875
2686.64579830858	1940.46667480469
2688.76209485256	1939.13330078125
2690.87779897038	1945.09997558594
2692.99291095376	1932.53332519531
2695.10743109424	1934.63330078125
2697.22135968318	1932.09997558594
2699.33469701179	1933.13330078125
2701.44744337108	1928.16662597656
2703.55959905187	1927.06665039063
2705.67116434485	1934.03332519531
2707.78213954048	1923.83337402344
2709.89252492907	1928.80004882813
2712.00232080076	1923.5
2714.1115274455	1923.43334960938
2716.22014515307	1925.83337402344
2718.32817421306	1926.73327636719
2720.43561491492	1923.86669921875
2722.54246754789	1924.23327636719
2724.64873240104	1921.13330078125
2726.75440976329	1915.26672363281
2728.85949992335	1921.40002441406
2730.96400316978	1914.56665039063
2733.06791979094	1907.59997558594
2735.17125007505	1915.80004882813
2737.27399431013	1914.46667480469
2739.37615278404	1911.06665039063
2741.47772578445	1907.5
2743.57871359887	1910.5
2745.67911651463	1906.33337402344
2747.7789348189	1910.86669921875
2749.87816879864	1911.46667480469
2751.97681874068	1905.46667480469
2754.07488493166	1908.5
2756.17236765804	1913.69995117188
2758.26926720611	1907.19995117188
2760.36558386199	1902.86669921875
2762.46131791164	1903.80004882813
2764.55646964082	1903.63330078125
2766.65103933514	1903.59997558594
2768.74502728003	1903.69995117188
2770.83843376075	1898.06665039063
2772.93125906238	1902.59997558594
2775.02350346986	1896.83337402344
2777.11516726792	1894.96667480469
2779.20625074112	1894.59997558594
2781.29675417389	1890.26672363281
2783.38667785045	1891.76672363281
2785.47602205485	1896.40002441406
2787.564787071	1895.76672363281
2789.65297318262	1894.13330078125
2791.74058067325	1888.96667480469
2793.82760982627	1887.80004882813
2795.9140609249	1893.36669921875
2797.99993425218	1892.59997558594
2800.08523009097	1894.83337402344
2802.16994872399	1890.86669921875
2804.25409043376	1894.73327636719
2806.33765550265	1880.59997558594
2808.42064421285	1893.26672363281
2810.5030568464	1878.80004882813
2812.58489368514	1877.76672363281
2814.66615501076	1887.33337402344
2816.7468411048	1889.23327636719
2818.8269522486	1884.03332519531
2820.90648872334	1884.09997558594
2822.98545081005	1882.03332519531
2825.06383878958	1875.09997558594
2827.1416529426	1882.09997558594
2829.21889354963	1879
2831.29556089103	1871.19995117188
2833.37165524697	1872.96667480469
2835.44717689746	1875.36669921875
2837.52212612235	1867.06665039063
2839.59650320133	1878.03332519531
2841.67030841392	1873
2843.74354203945	1877.96667480469
2845.81620435711	1871.53332519531
2847.88829564593	1868.26672363281
2849.95981618474	1866.19995117188
2852.03076625224	1867.13330078125
2854.10114612695	1868.66662597656
2856.17095608722	1869.86669921875
2858.24019641124	1871.69995117188
2860.30886737704	1869.13330078125
2862.37696926247	1862.53332519531
2864.44450234525	1864.53332519531
2866.51146690289	1861.33337402344
2868.57786321276	1866.03332519531
2870.64369155207	1863.43334960938
2872.70895219786	1869.26672363281
2874.77364542701	1861.76672363281
2876.83777151622	1857.06665039063
2878.90133074205	1859.66662597656
2880.96432338087	1862.90002441406
2883.02674970892	1858.56665039063
2885.08861000225	1853.33337402344
2887.14990453676	1856.83337402344
2889.21063358818	1863.09997558594
2891.27079743209	1860.43334960938
2893.33039634389	1852.93334960938
2895.38943059883	1854.73327636719
2897.447900472	1855.36669921875
2899.50580623832	1849.59997558594
2901.56314817254	1849.53332519531
2903.61992654928	1846.86669921875
2905.67614164298	1853.19995117188
2907.73179372789	1852.53332519531
2909.78688307816	1851.23327636719
2911.84140996772	1840.33337402344
2913.89537467038	1852.63330078125
2915.94877745976	1849.73327636719
2918.00161860935	1853.56665039063
2920.05389839246	1850.66662597656
2922.10561708223	1848.56665039063
2924.15677495167	1843.03332519531
2926.20737227361	1845.53332519531
2928.25740932072	1843.69995117188
2930.30688636552	1845.73327636719
2932.35580368036	1841.26672363281
2934.40416153743	1843.46667480469
2936.45196020879	1839.33337402344
2938.49919996629	1836.23327636719
2940.54588108167	1842.76672363281
2942.59200382649	1839.43334960938
2944.63756847214	1837.30004882813
2946.68257528988	1835.76672363281
2948.72702455079	1833.19995117188
2950.7709165258	1835.30004882813
2952.81425148567	1837.90002441406
2954.85702970103	1837
2956.89925144233	1829.66662597656
2958.94091697988	1829.26672363281
2960.9820265838	1831.83337402344
2963.02258052408	1837.96667480469
2965.06257907056	1824.90002441406
2967.1020224929	1832.40002441406
2969.14091106062	1828.80004882813
2971.17924504309	1830.43334960938
2973.21702470949	1823.53332519531
2975.25425032888	1824.30004882813
2977.29092217015	1826.76672363281
2979.32704050203	1823.80004882813
2981.36260559311	1821.33337402344
2983.3976177118	1826.03332519531
2985.43207712638	1824.46667480469
2987.46598410496	1824.30004882813
2989.4993389155	1823.36669921875
2991.5321418258	1824.96667480469
2993.56439310352	1822.83337402344
2995.59609301614	1825.73327636719
2997.62724183102	1817.46667480469
2999.65783981532	1818.73327636719
3001.6878872361	1818.5
3003.71738436023	1820.80004882813
3005.74633145443	1816.5
3007.77472878527	1814.46667480469
3009.80257661918	1817.40002441406
3011.82987522242	1812.53332519531
3013.85662486111	1812.16662597656
3015.88282580119	1817.33337402344
3017.90847830848	1811.36669921875
3019.93358264864	1810.93334960938
3021.95813908716	1810.03332519531
3023.9821478894	1811.59997558594
3026.00560932055	1808.73327636719
3028.02852364566	1808.93334960938
3030.05089112962	1811.86669921875
3032.07271203718	1808.03332519531
3034.09398663292	1807.06665039063
3036.11471518128	1809
3038.13489794656	1811.53332519531
3040.15453519289	1811.16662597656
3042.17362718426	1813.06665039063
3044.1921741845	1809.09997558594
3046.2101764573	1808.16662597656
3048.22763426619	1803
3050.24454787457	1804.19995117188
3052.26091754566	1798.76672363281
3054.27674354254	1801.19995117188
3056.29202612816	1806.03332519531
3058.3067655653	1805.06665039063
3060.32096211659	1799.63330078125
3062.33461604452	1805.03332519531
3064.34772761144	1803.90002441406
3066.36029707952	1794.66662597656
3068.37232471081	1797.13330078125
3070.3838107672	1801.23327636719
3072.39475551043	1799.93334960938
3074.40515920209	1804.56665039063
3076.41502210364	1798.26672363281
3078.42434447637	1800.30004882813
3080.43312658143	1793.56665039063
3082.44136867982	1795.63330078125
3084.44907103239	1798.96667480469
3086.45623389987	1798.56665039063
3088.4628575428	1796.06665039063
3090.4689422216	1803.46667480469
3092.47448819653	1796.09997558594
3094.47949572772	1796.43334960938
3096.48396507513	1793.13330078125
3098.48789649859	1798.63330078125
3100.49129025779	1788.83337402344
3102.49414661225	1787.43334960938
3104.49646582136	1795.69995117188
3106.49824814437	1788.06665039063
3108.49949384037	1787.19995117188
3110.50020316831	1788.06665039063
3112.500376387	1788.5
3114.50001375509	1787.30004882813
3116.4991155311	1784.63330078125
3118.4976819734	1787.40002441406
3120.49571334021	1788.19995117188
3122.49320988962	1791.09997558594
3124.49017187955	1786.76672363281
3126.48659956781	1789.76672363281
3128.48249321203	1783.53332519531
3130.47785306973	1781.06665039063
3132.47267939825	1785.13330078125
3134.46697245482	1781.30004882813
3136.46073249651	1785.69995117188
3138.45395978023	1789.26672363281
3140.44665456279	1781.63330078125
3142.43881710082	1786.30004882813
3144.43044765083	1786.30004882813
3146.42154646916	1783.63330078125
3148.41211381202	1784.36669921875
3150.4021499355	1779.16662597656
3152.39165509552	1782.5
3154.38062954786	1778.36669921875
3156.36907354817	1775.5
3158.35698735195	1775.40002441406
3160.34437121457	1777.23327636719
3162.33122539124	1781.33337402344
3164.31755013704	1774.86669921875
3166.3033457069	1774
3168.28861235562	1776.23327636719
3170.27335033786	1777.30004882813
3172.25755990813	1778.93334960938
3174.2412413208	1773.63330078125
3176.22439483009	1775.16662597656
3178.20702069011	1775.93334960938
3180.18911915481	1777.53332519531
3182.17069047799	1779.80004882813
3184.15173491334	1772.46667480469
3186.13225271437	1774.03332519531
3188.11224413448	1775.73327636719
3190.09170942692	1772.96667480469
3192.07064884482	1771.30004882813
3194.04906264114	1775.06665039063
3196.02695106871	1767.26672363281
3198.00431438023	1770.46667480469
3199.98115282827	1761.30004882813
3201.95746666524	1764.5
3203.93325614341	1760.46667480469
3205.90852151494	1765.93334960938
3207.88326303182	1768
3209.85748094592	1760.5
3211.83117550897	1765.19995117188
3213.80434697256	1773.26672363281
3215.77699558815	1766.73327636719
3217.74912160705	1763.09997558594
3219.72072528044	1761.16662597656
3221.69180685935	1765.83337402344
3223.6623665947	1764.40002441406
3225.63240473726	1764.76672363281
3227.60192153764	1757.13330078125
3229.57091724636	1758.26672363281
3231.53939211376	1755.43334960938
3233.50734639007	1764.40002441406
3235.47478032538	1760.30004882813
3237.44169416964	1760.93334960938
3239.40808817265	1761.83337402344
3241.3739625841	1759.43334960938
3243.33931765354	1762.30004882813
3245.30415363038	1759.73327636719
3247.26847076388	1757.40002441406
3249.23226930318	1753.43334960938
3251.1955494973	1757.40002441406
3253.15831159509	1760.09997558594
3255.1205558453	1758.86669921875
3257.08228249652	1751.76672363281
3259.04349179722	1757.26672363281
3261.00418399574	1755.83337402344
3262.96435934026	1752.80004882813
3264.92401807885	1757.19995117188
3266.88316045946	1758.36669921875
3268.84178672986	1754.36669921875
3270.79989713773	1753.33337402344
3272.7574919306	1753.69995117188
3274.71457135587	1753.16662597656
3276.6711356608	1753.16662597656
3278.62718509252	1752.40002441406
3280.58271989803	1753.69995117188
3282.53774032421	1751.90002441406
3284.49224661778	1753.09997558594
3286.44623902535	1752.63330078125
3288.39971779339	1755
3290.35268316824	1752.26672363281
3292.30513539611	1749.40002441406
3294.25707472307	1748.30004882813
3296.20850139507	1749.43334960938
3298.15941565793	1748.59997558594
3300.10981775731	1748.96667480469
3302.05970793879	1747.19995117188
3304.00908644778	1750.5
3305.95795352955	1750.5
3307.9063094293	1748.59997558594
3309.85415439202	1748.09997558594
3311.80148866264	1751.53332519531
3313.74831248591	1744.33337402344
3315.69462610647	1741.43334960938
3317.64042976884	1747.06665039063
3319.58572371739	1748.46667480469
3321.53050819639	1745.09997558594
3323.47478344994	1745.30004882813
3325.41854972204	1744.53332519531
3327.36180725656	1745.69995117188
3329.30455629722	1739.83337402344
3331.24679708763	1739.93334960938
3333.18852987128	1739.86669921875
3335.12975489151	1743.90002441406
3337.07047239154	1744.03332519531
3339.01068261447	1742.40002441406
3340.95038580325	1735.09997558594
3342.88958220072	1739.93334960938
3344.82827204961	1740
3346.76645559248	1736.83337402344
3348.70413307179	1739.73327636719
3350.64130472987	1733.66662597656
3352.57797080891	1742.86669921875
3354.51413155099	1739.73327636719
3356.44978719807	1737.30004882813
3358.38493799195	1741.73327636719
3360.31958417434	1739
3362.25372598679	1738.09997558594
3364.18736367075	1740.19995117188
3366.12049746753	1736.46667480469
3368.05312761833	1734.5
3369.9852543642	1737.73327636719
3371.91687794609	1738.90002441406
3373.8479986048	1737.30004882813
3375.77861658103	1734.30004882813
3377.70873211532	1731
3379.63834544813	1732.96667480469
3381.56745681977	1729.59997558594
3383.49606647041	1733.19995117188
3385.42417464013	1729.03332519531
3387.35178156885	1732.23327636719
3389.27888749641	1728.86669921875
3391.20549266247	1728.06665039063
3393.13159730662	1729.46667480469
3395.05720166829	1729.59997558594
3396.9823059868	1732.03332519531
3398.90691050135	1732.76672363281
3400.83101545101	1726.43334960938
3402.75462107473	1729.5
3404.67772761132	1729.43334960938
3406.60033529949	1729.59997558594
3408.52244437783	1729.5
3410.44405508479	1728.63330078125
3412.3651676587	1724.23327636719
3414.28578233777	1723.83337402344
3416.2058993601	1729.53332519531
3418.12551896366	1727.03332519531
3420.04464138627	1727.23327636719
3421.96326686569	1721.40002441406
3423.88139563949	1722.26672363281
3425.79902794517	1721.80004882813
3427.71616402009	1722.13330078125
3429.63280410148	1723.23327636719
3431.54894842645	1723.16662597656
3433.464597232	1724.43334960938
3435.37975075503	1724.73327636719
3437.29440923226	1726.36669921875
3439.20857290035	1723.03332519531
3441.12224199579	1727.53332519531
3443.035416755	1724.59997558594
3444.94809741424	1720.93334960938
3446.86028420966	1717.26672363281
3448.7719773773	1720.96667480469
3450.68317715308	1720.56665039063
3452.59388377278	1721.66662597656
3454.50409747209	1718.43334960938
3456.41381848656	1718.36669921875
3458.32304705162	1724.86669921875
3460.2317834026	1723.36669921875
3462.1400277747	1717.40002441406
3464.047780403	1722.56665039063
3465.95504152246	1717.26672363281
3467.86181136793	1722.96667480469
3469.76809017412	1720.96667480469
3471.67387817566	1720.06665039063
3473.57917560703	1720.86669921875
3475.4839827026	1719.90002441406
3477.38829969664	1722.13330078125
3479.29212682326	1720.76672363281
3481.19546431651	1718.19995117188
3483.09831241027	1714.09997558594
3485.00067133835	1716.90002441406
3486.9025413344	1717.53332519531
3488.80392263197	1719.90002441406
3490.70481546451	1719.23327636719
3492.60522006534	1715.86669921875
3494.50513666765	1712.53332519531
3496.40456550454	1710.66662597656
3498.30350680898	1708.03332519531
3500.20196081382	1708.5
3502.0999277518	1712.06665039063
3503.99740785554	1709.13330078125
3505.89440135756	1713.83337402344
3507.79090849025	1715.13330078125
3509.68692948589	1711.5
3511.58246457663	1708.63330078125
3513.47751399454	1711.59997558594
3515.37207797153	1711.56665039063
3517.26615673944	1708.96667480469
3519.15975052996	1710.19995117188
3521.05285957469	1705.53332519531
3522.9454841051	1709.69995117188
3524.83762435255	1706.06665039063
3526.7292805483	1709.36669921875
3528.62045292348	1709.03332519531
3530.5111417091	1706.59997558594
3532.40134713609	1711.16662597656
3534.29106943522	1704.09997558594
3536.18030883718	1707.30004882813
3538.06906557255	1706.03332519531
3539.95733987177	1699.36669921875
3541.84513196519	1707.63330078125
3543.73244208305	1701.23327636719
3545.61927045544	1709.69995117188
3547.5056173124	1705.36669921875
3549.39148288379	1708.30004882813
3551.27686739942	1708.80004882813
3553.16177108894	1708.96667480469
3555.04619418191	1708.23327636719
3556.93013690779	1699.96667480469
3558.8135994959	1708.96667480469
3560.69658217547	1703.86669921875
3562.57908517561	1705.76672363281
3564.46110872532	1703.06665039063
3566.3426530535	1699.90002441406
3568.22371838891	1702.5
3570.10430496024	1696.19995117188
3571.98441299604	1702.63330078125
3573.86404272476	1705.56665039063
3575.74319437474	1707.19995117188
3577.62186817419	1700.30004882813
3579.50006435126	1703.80004882813
3581.37778313393	1702.56665039063
3583.25502475011	1699.59997558594
3585.1317894276	1703.26672363281
3587.00807739406	1701.06665039063
3588.88388887708	1698.93334960938
3590.7592241041	1697.33337402344
3592.6340833025	1700.30004882813
3594.50846669951	1699.63330078125
3596.38237452226	1697.23327636719
3598.25580699778	1695.59997558594
3600.128764353	1700.36669921875
3602.00124681473	1693.69995117188
3603.87325460965	1695
3605.74478796438	1697.66662597656
3607.6158471054	1697.16662597656
3609.48643225908	1695.93334960938
3611.35654365171	1695.63330078125
3613.22618150943	1691.23327636719
3615.09534605832	1692.09997558594
3616.96403752432	1694.56665039063
3618.83225613328	1695.23327636719
3620.70000211093	1690.43334960938
3622.56727568289	1691.73327636719
3624.43407707471	1688.59997558594
3626.30040651178	1687.46667480469
3628.16626421943	1692.83337402344
3630.03165042286	1689.83337402344
3631.89656534716	1692.56665039063
3633.76100921734	1689.63330078125
3635.62498225827	1693.33337402344
3637.48848469475	1692.96667480469
3639.35151675143	1691
3641.21407865291	1692.80004882813
3643.07617062364	1689.56665039063
3644.93779288798	1693.66662597656
3646.7989456702	1691.30004882813
3648.65962919443	1690.36669921875
3650.51984368473	1688
3652.37958936505	1689.73327636719
3654.23886645922	1687.80004882813
3656.09767519098	1688.83337402344
3657.95601578395	1682.83337402344
3659.81388846166	1687.63330078125
3661.67129344754	1689.43334960938
3663.5282309649	1687.16662597656
3665.38470123697	1685.96667480469
3667.24070448684	1683.09997558594
3669.09624093753	1688.93334960938
3670.95131081196	1685.13330078125
3672.80591433291	1684.09997558594
3674.6600517231	1686.46667480469
3676.51372320512	1684.80004882813
3678.36692900147	1684.13330078125
3680.21966933453	1681.19995117188
3682.07194442661	1682.5
3683.92375449988	1683.53332519531
3685.77509977644	1681.40002441406
3687.62598047828	1683.53332519531
3689.47639682727	1679.86669921875
3691.3263490452	1677.76672363281
3693.17583735375	1683.40002441406
3695.02486197449	1683.59997558594
