-45.2401889441923	1572.16662597656
-42.2571418106843	1571.19995117188
-39.275147535157	1571.86669921875
-36.2942055291813	1571.06665039063
-33.3143152047077	1571.90002441406
-30.3354759740543	1571.76672363281
-27.3576872498819	1572
-24.3809484452426	1572.76672363281
-21.4052589735345	1572.69995117188
-18.4306182485383	1572.46667480469
-15.4570256843844	1572.5
-12.4844806955729	1572.90002441406
-9.51298269698132	1575.23327636719
-6.54253110382404	1579.93334960938
-3.57312533170841	1624.53332519531
-0.604764796590144	1787.93334960938
2.36255108520685	1888.80004882813
5.32882289699475	1727.59997558594
8.29405122173018	1598.76672363281
11.2582366419864	1578.76672363281
14.2213797399976	1576.5
17.1834810976034	1575.30004882813
20.1445412963249	1574.80004882813
23.104560917277	1574.56665039063
26.0635405412247	1575.63330078125
29.0214807485957	1574.80004882813
31.978382119408	1575.23327636719
34.934245233367	1576.63330078125
37.8890706697771	1576.13330078125
40.8428590076026	1577
43.7956108254354	1577
46.7473267015117	1577.43334960938
49.6980072137041	1580.06665039063
52.6476529395181	1584.09997558594
55.596264456108	1600.19995117188
58.5438423402577	1663.83337402344
61.4903871683965	1837.83337402344
64.4358995165918	2269.96655273438
67.380379960537	3081.30004882813
70.3238290756001	4389.2998046875
73.2662474367399	6317.36669921875
76.2076356185902	8855
79.1479941954243	11770.900390625
82.0873237411349	14036.7333984375
85.025624829259	15191.533203125
87.9628980329935	15432.400390625
90.899143925168	15514.1669921875
93.8343630782328	15515.1337890625
96.7685560643034	15602.533203125
99.7017234551246	15646.966796875
102.633865822075	15525
105.564983736195	15350.3330078125
108.495077768152	15065.033203125
111.42414848827	14729.43359375
114.352196466482	14522.3662109375
117.279222272391	14344.6669921875
120.205226475244	14199.533203125
123.130209643912	14079.599609375
126.054172346928	13959.3330078125
128.977115152439	13820.2998046875
131.899038628261	13687.3330078125
134.819943341853	13543.599609375
137.739829860302	13423.8662109375
140.658698750341	13192.56640625
143.576550578347	13092.8330078125
146.493385910355	12954.06640625
149.409205312026	12816.1669921875
152.324009348666	12624.7333984375
155.237798585238	12489.900390625
158.150573586327	12349.7666015625
161.062334916191	12164.06640625
163.973083138706	11949.533203125
166.882818817401	11790.900390625
169.791542515469	11673.8330078125
172.699254795719	11474.1669921875
175.605956220611	11348.533203125
178.511647352267	11283.099609375
181.416328752442	11143.6337890625
184.320000982542	11089.7998046875
187.222664603597	10947.56640625
190.124320176313	10951.7333984375
193.024968261034	10825.3330078125
195.92460941774	10781
198.823244206055	10748.7333984375
201.720873185267	10730.8662109375
204.617496914305	10640.7998046875
207.513115951723	10662.43359375
210.407730855754	10662.3662109375
213.30134218427	10640.2333984375
216.193950494753	10689.900390625
219.085556344398	10748.7333984375
221.976160289983	10920.033203125
224.865762887991	11211.966796875
227.754364694509	11546.6337890625
230.641966265291	11756.099609375
233.528568155731	11828.533203125
236.414170920884	11748.400390625
239.298775115443	11718.099609375
242.182381293759	11671.8662109375
245.064990009819	11603.1337890625
247.946601817262	11582.93359375
250.827217269384	11565.6337890625
253.70683691913	11512.7998046875
256.585461319087	11535.966796875
259.4630910215	11515.900390625
262.339726578252	11561.2001953125
265.215368540873	11554.7666015625
268.090017460579	11542.7333984375
270.963673888194	11553.43359375
273.836338374209	11652.7001953125
276.70801146877	11717.3662109375
279.578693721663	11777.56640625
282.448385682337	11870.7001953125
285.317087899882	11950.7001953125
288.184800923049	12079.6337890625
291.051525300226	12277.7998046875
293.917261579464	12567.1669921875
296.78201030847	12921.2333984375
299.645772034594	13462.400390625
302.508547304836	13980.599609375
305.370336665847	14106.400390625
308.231140663949	13539.56640625
311.09095984509	12732.400390625
313.949794754896	12156.400390625
316.807645938619	11690.7001953125
319.664513941194	11344.8330078125
322.520399307184	11066.7001953125
325.375302580825	10764.8330078125
328.229224305993	10545.8662109375
331.08216502621	10356.2333984375
333.934125284678	10190.93359375
336.785105624237	9949.1669921875
339.635106587364	9766.06640625
342.484128716245	9603.3662109375
345.332172552651	9451.3330078125
348.179238638056	9286.7333984375
351.025327513573	9137.466796875
353.870439719969	9035.7666015625
356.714575797675	8845.2001953125
359.557736286761	8780.7333984375
362.399921726965	8634.3662109375
365.241132657683	8556.2666015625
368.08136961795	8417.8662109375
370.920633146491	8334.8330078125
373.758923781642	8182.7998046875
376.596242061425	8086.60009765625
379.432588523516	8018.7666015625
382.267963705242	7909.10009765625
385.102368143586	7788.966796875
387.935802375186	7685.39990234375
390.768266936356	7555.13330078125
393.599762363038	7446.43310546875
396.430289190845	7368.39990234375
399.259847955062	7266.033203125
402.088439190611	7172.2666015625
404.916063432085	7097.66650390625
407.742721213719	6981
410.568413069422	6916.33349609375
413.393139532766	6790.966796875
416.216901136962	6738.39990234375
419.039698414892	6677.466796875
421.861531899094	6581.7333984375
424.68240212177	6571.10009765625
427.502309614777	6521.83349609375
430.321254909631	6477.10009765625
433.139238537512	6453.7001953125
435.95626102925	6360.93310546875
438.772322915338	6136.533203125
441.587424725946	5803.2001953125
444.401566990891	5512
447.214750239647	5217.033203125
450.026975001345	4970.66650390625
452.838241804787	4725.2333984375
455.648551178448	4481.7333984375
458.457903650428	4254.36669921875
461.266299748525	4101.66650390625
464.073740000176	4082.7333984375
466.880224932491	4073.46655273438
469.685755072224	4134
472.49033094583	4183.93310546875
475.293953079382	4221.2333984375
478.096621998649	4274.7666015625
480.898338229025	4356.83349609375
483.699102295617	4535.06689453125
486.498914723152	4723.7666015625
489.297776036039	5032.7001953125
492.095686758341	5482.39990234375
494.892647413792	6073.2666015625
497.688658525797	7032.66650390625
500.483720617416	8661.93359375
503.277834211359	11487.033203125
506.070999830014	16372.466796875
508.863217995447	25176.033203125
511.654489229365	41079.8671875
514.444814053149	64496.734375
517.234192987849	64498.8671875
520.022626554168	64490.66796875
522.810115272482	64457.1015625
525.596659662839	64419.03515625
528.38226024494	64389.83203125
531.166917538156	62566.83203125
533.950632061519	49149.03515625
536.733404333745	40174.765625
539.515234873196	33853.234375
542.296124197909	29427.767578125
545.076072825582	26068.900390625
547.855081273594	23464.966796875
550.633150058969	21435.56640625
553.410279698419	19602.30078125
556.186470708302	18259.099609375
558.961723604673	16970.06640625
561.736038903213	16028.7998046875
564.509417119317	15175.7666015625
567.281858768001	14427.533203125
570.053364363996	13729.7333984375
572.823934421673	13146.033203125
575.593569455063	12614.7333984375
578.362269977887	12170.2001953125
581.13003650352	11747.56640625
583.896869545036	11425.2998046875
586.662769615118	11096.5
589.427737226192	10860.6669921875
592.191772890281	10584.06640625
594.954877119143	10364.533203125
597.717050424155	10191.2998046875
600.478293316392	10022.099609375
603.238606306584	9939.7998046875
605.997989905147	9915.43359375
608.756444622156	9996.2001953125
611.513970967355	10401.1337890625
614.270569450165	11070.599609375
617.026240579686	11818.2998046875
619.780984864663	12100.3330078125
622.534802813532	11756.7998046875
625.287694934412	11249.966796875
628.03966173506	10700.900390625
630.790703722927	10304.2666015625
633.540821405132	10009.93359375
636.290015288469	9937.1669921875
639.038285879407	9889.8662109375
641.785633684076	9904.06640625
644.532059208274	9734.56640625
647.277562957498	9546.1669921875
650.022145436902	9350.400390625
652.765807151302	9202.3662109375
655.508548605209	9089.1669921875
658.250370302793	9031.06640625
660.991272747899	8972.7666015625
663.731256444054	8916
666.470321894451	8870.099609375
669.208469601962	8838.5
671.945700069131	8741.2001953125
674.682013798178	8662.033203125
677.417411290986	8586.7333984375
680.151893049146	8451.1669921875
682.885459573888	8249.8330078125
685.618111366128	8159.2333984375
688.34984892646	8034.63330078125
691.080672755169	7882.533203125
693.810583352186	7763.36669921875
696.539581217132	7638.39990234375
699.267666849313	7519.06689453125
701.994840747703	7426.86669921875
704.721103410944	7354.43310546875
707.446455337377	7227.39990234375
710.170897024995	7145.89990234375
712.894428971485	7117.56689453125
715.617051674187	7002.66650390625
718.338765630169	6960.33349609375
721.05957133613	6893.7998046875
723.779469288441	6859.83349609375
726.498459983198	6810.86669921875
729.216543916137	6753.2001953125
731.933721582681	6730.7001953125
734.649993477945	6683.93310546875
737.365360096698	6651.7666015625
740.079821933394	6601.2001953125
742.793379482191	6588.5
745.5060332369	6539.39990234375
748.217783691023	6522.033203125
750.928631337729	6494.2001953125
753.638576669879	6492
756.347620180013	6514.5
759.055762360346	6472.63330078125
761.763003702777	6517.2001953125
764.469344698871	6500.2998046875
767.174785839897	6497.7998046875
769.879327616797	6495.16650390625
772.582970520184	6468.66650390625
775.285715040362	6506.7666015625
777.987561667313	6482.10009765625
780.688510890689	6490.66650390625
783.388563199848	6512.86669921875
786.087719083807	6519.966796875
788.785979031286	6511.033203125
791.483343530663	6517.60009765625
794.179813070017	6546.43310546875
796.875388137099	6541.10009765625
799.570069219352	6553.83349609375
802.263856803892	6567.466796875
804.956751377531	6583.89990234375
807.648753426741	6604.5
810.339863437697	6612.7333984375
813.030081896262	6612.7333984375
815.719409287963	6601.2001953125
818.407846098024	6665.13330078125
821.095392811349	6661.033203125
823.782049912526	6625.86669921875
826.467817885835	6623.10009765625
829.152697215234	6616.63330078125
831.836688384349	6553.033203125
834.519791876529	6494.7666015625
837.202008174773	6459.5
839.883337761785	6344.93310546875
842.563781119958	6308.16650390625
845.243338731338	6291.033203125
847.922011077699	6236.7333984375
850.599798640477	6233.466796875
853.276701900794	6212.5
855.952721339476	6208.36669921875
858.627857437005	6187.2333984375
861.302110673584	6200.89990234375
863.975481529079	6171.43310546875
866.647970483049	6177.7998046875
869.319578014749	6182.60009765625
871.990304603112	6183.33349609375
874.660150726749	6138.033203125
877.329116863983	6153.56689453125
879.997203492813	6140.36669921875
882.664411090929	6125.7666015625
885.33074013569	6144.86669921875
887.996191104159	6131.7001953125
890.660764473109	6091.7666015625
893.324460718974	6104.7001953125
895.987280317876	6106.13330078125
898.649223745636	6091.533203125
901.310291477756	6099.033203125
903.970483989453	6074.39990234375
906.629801755596	6104.2333984375
909.288245250776	6116.7998046875
911.945814949256	6121.63330078125
914.602511324978	6181.033203125
917.258334851616	6273.56689453125
919.913286002497	6402.2998046875
922.567365250649	6525.7333984375
925.22057306879	6805.33349609375
927.87290992934	7318.7666015625
930.524376304403	8192.2001953125
933.174972665761	9320.7333984375
935.824699484912	10646.1669921875
938.473557233032	12038.033203125
941.121546380987	13307.099609375
943.76866739934	13972
946.414920758346	14101.1669921875
949.060306927954	13929.1669921875
951.704826377814	13886.2998046875
954.348479577234	13901.033203125
956.99126699526	13908.7333984375
959.633189100604	13949.599609375
962.274246361692	14024.2333984375
964.914439246606	14140.8330078125
967.553768223164	14214.599609375
970.192233758857	14237.2001953125
972.829836320867	14309.43359375
975.466576376087	14323.8330078125
978.102454391088	14293.1669921875
980.737470832139	14166.7333984375
983.371626165215	13947.56640625
986.004920855969	13401.7001953125
988.637355369776	12444.7666015625
991.268930171662	11196.1669921875
993.899645726397	9917.3662109375
996.529502498419	8930.43359375
999.158500951862	8170.36669921875
1001.78664155056	7622.966796875
1004.41392475806	7253.86669921875
1007.04035103758	6945.13330078125
1009.66592085205	6675.66650390625
1012.29063466409	6424.16650390625
1014.91449293603	6189.7333984375
1017.53749612986	5965.86669921875
1020.15964470732	5748.56689453125
1022.78093912982	5510.39990234375
1025.40137985846	5339.033203125
1028.02096735405	5151.7001953125
1030.63970207709	4944.2666015625
1033.2575844878	4812.06689453125
1035.87461504606	4657.39990234375
1038.49079421149	4567.93310546875
1041.10612244339	4492.89990234375
1043.72060020075	4431.89990234375
1046.33422794226	4413.66650390625
1048.94700612634	4345.2333984375
1051.55893521106	4324.60009765625
1054.17001565425	4288.33349609375
1056.78024791337	4264.7001953125
1059.38963244565	4245.2001953125
1061.99816970796	4202.93310546875
1064.60586015692	4221.36669921875
1067.21270424881	4205.13330078125
1069.81870243964	4158.7998046875
1072.4238551851	4165.36669921875
1075.02816294061	4166.63330078125
1077.63162616126	4138.533203125
1080.23424530184	4149.7998046875
1082.83602081688	4154.93310546875
1085.43695316057	4117.86669921875
1088.03704278683	4136.06689453125
1090.63629014927	4126.43310546875
1093.23469570121	4091.56665039063
1095.83225989566	4099.033203125
1098.42898318533	4069.10009765625
1101.02486602265	4080.2333984375
1103.61990885976	4056.46655273438
1106.21411214847	4041.86669921875
1108.80747634032	4015.46655273438
1111.40000188655	4006.83325195313
1113.9916892381	4002.96655273438
1116.58253884561	3991
1119.17255115943	3973.06665039063
1121.76172662961	3951.56665039063
1124.35006570591	3962.5
1126.9375688378	3932.96655273438
1129.52423647443	3902.56665039063
1132.11006906469	3912.46655273438
1134.69506705716	3895.96655273438
1137.2792309001	3878.66674804688
1139.86256104151	3841.7333984375
1142.44505792909	3841.89990234375
1145.02672201025	3835.2666015625
1147.60755373207	3818.19995117188
1150.18755354139	3801.03344726563
1152.76672188471	3792.10009765625
1155.34505920827	3781.63330078125
1157.92256595801	3760.46655273438
1160.49924257955	3779.66674804688
1163.07508951825	3756.80004882813
1165.65010721916	3749.03344726563
1168.22429612705	3740.39990234375
1170.79765668639	3735.7333984375
1173.37018934135	3718.16674804688
1175.94189453584	3722.2666015625
1178.51277271342	3710.7333984375
1181.08282431743	3677.93334960938
1183.65204979087	3701.69995117188
1186.22044957645	3691.89990234375
1188.78802411661	3698.86669921875
1191.3547738535	3677.16674804688
1193.92069922895	3675.93334960938
1196.48580068454	3664.10009765625
1199.05007866152	3668.19995117188
1201.61353360089	3687.7333984375
1204.17616594332	3683.46655273438
1206.73797612922	3677.36669921875
1209.2989645987	3678.69995117188
1211.85913179158	3667.16674804688
1214.41847814739	3682.7666015625
1216.97700410537	3659.53344726563
1219.53471010449	3665.7333984375
1222.09159658339	3637.83325195313
1224.64766398047	3620
1227.20291273382	3630.46655273438
1229.75734328122	3631.80004882813
1232.31095606021	3613.33325195313
1234.86375150799	3581.30004882813
1237.41573006151	3584.7666015625
1239.96689215743	3568.80004882813
1242.51723823211	3569.46655273438
1245.06676872161	3545.96655273438
1247.61548406173	3543.7666015625
1250.16338468799	3564.30004882813
1252.71047103558	3550.83325195313
1255.25674353946	3526.30004882813
1257.80220263425	3541.7666015625
1260.34684875432	3535.46655273438
1262.89068233375	3506.7666015625
1265.43370380632	3505.30004882813
1267.97591360553	3493.69995117188
1270.5173121646	3470.93334960938
1273.05789991646	3481.30004882813
1275.59767729377	3475.2333984375
1278.13664472889	3463.7666015625
1280.67480265389	3467.39990234375
1283.21215150057	3448.36669921875
1285.74869170044	3449.10009765625
1288.28442368473	3438.93334960938
1290.81934788439	3448
1293.35346473005	3432.46655273438
1295.88677465212	3421.93334960938
1298.41927808069	3416.16674804688
1300.95097544555	3414.93334960938
1303.48186717624	3418.39990234375
1306.01195370201	3409.19995117188
1308.54123545182	3389.39990234375
1311.06971285434	3391.63330078125
1313.59738633798	3388.86669921875
1316.12425633085	3385.66674804688
1318.65032326079	3391.63330078125
1321.17558755536	3367.53344726563
1323.70004964181	3372.39990234375
1326.22370994715	3345.10009765625
1328.74656889809	3349.30004882813
1331.26862692105	3353.46655273438
1333.78988444217	3344.80004882813
1336.31034188735	3349.16674804688
1338.82999968215	3323.83325195313
1341.34885825189	3326.36669921875
1343.86691802159	3326.80004882813
1346.38417941601	3331.36669921875
1348.90064285961	3331.69995117188
1351.41630877658	3336.06665039063
1353.93117759083	3308.93334960938
1356.445249726	3307.93334960938
1358.95852560543	3319.39990234375
1361.47100565221	3305.16674804688
1363.98269028912	3309.19995117188
1366.49357993869	3291.7333984375
1369.00367502314	3296.13330078125
1371.51297596445	3285.5
1374.02148318431	3285.36669921875
1376.52919710411	3279.60009765625
1379.03611814498	3248.2666015625
1381.54224672778	3231.19995117188
1384.04758327308	3238.63330078125
1386.55212820117	3221.2333984375
1389.05588193209	3217.53344726563
1391.55884488557	3207.46655273438
1394.06101748108	3200.63330078125
1396.56240013782	3198.5
1399.0629932747	3204.86669921875
1401.56279731037	3193.46655273438
1404.0618126632	3192.96655273438
1406.56003975125	3191.86669921875
1409.05747899237	3169.89990234375
1411.55413080407	3169.93334960938
1414.04999560365	3167.2333984375
1416.54507380806	3172.39990234375
1419.03936583405	3162.43334960938
1421.53287209805	3161.46655273438
1424.02559301623	3162.03344726563
1426.51752900447	3144.86669921875
1429.00868047841	3150.66674804688
1431.49904785338	3161
1433.98863154447	3148.69995117188
1436.47743196647	3170
1438.9654495339	3147.83325195313
1441.45268466103	3164.5
1443.93913776184	3172.86669921875
1446.42480925002	3152.46655273438
1448.90969953903	3149.7666015625
1451.39380904203	3152.13330078125
1453.8771381719	3143.06665039063
1456.35968734128	3135.83325195313
1458.84145696249	3127.69995117188
1461.32244744765	3115.43334960938
1463.80265920853	3097.86669921875
1466.28209265669	3094.80004882813
1468.76074820338	3080.2666015625
1471.23862625961	3081.69995117188
1473.71572723609	3058
1476.19205154328	3054.60009765625
1478.66759959136	3053.19995117188
1481.14237179025	3030.66674804688
1483.6163685496	3044.43334960938
1486.08959027876	3029.36669921875
1488.56203738687	3021.83325195313
1491.03371028273	3011.63330078125
1493.50460937494	2999.36669921875
1495.97473507177	2993.30004882813
1498.44408778127	2979.33325195313
1500.91266791119	2989.96655273438
1503.38047586902	2978.86669921875
1505.847512062	2961
1508.31377689707	2958.39990234375
1510.77927078093	2955.86669921875
1513.24399411999	2943.66674804688
1515.70794732042	2938.83325195313
1518.17113078809	2945.83325195313
1520.63354492864	2920.2666015625
1523.0951901474	2931.56665039063
1525.55606684947	2922.80004882813
1528.01617543967	2935.13330078125
1530.47551632254	2911.06665039063
1532.93408990238	2916.43334960938
1535.39189658321	2902.06665039063
1537.84893676879	2900.06665039063
1540.3052108626	2896.69995117188
1542.76071926787	2896.83325195313
1545.21546238755	2905.43334960938
1547.66944062434	2882.7333984375
1550.12265438069	2892.2666015625
1552.57510405874	2872.33325195313
1555.02679006038	2876.06665039063
1557.47771278727	2869.06665039063
1559.92787264078	2858.10009765625
1562.37727002201	2856.39990234375
1564.82590533181	2842.86669921875
1567.27377897075	2841.2333984375
1569.72089133915	2851.16674804688
1572.16724283706	2849.03344726563
1574.6128338643	2842.66674804688
1577.05766482036	2850.30004882813
1579.50173610452	2830.63330078125
1581.94504811578	2838.10009765625
1584.38760125289	2825.86669921875
1586.82939591432	2816
1589.27043249829	2816.93334960938
1591.71071140274	2821.89990234375
1594.15023302539	2807.46655273438
1596.58899776364	2793.19995117188
1599.02700601469	2789.69995117188
1601.46425817542	2804.06665039063
1603.90075464249	2778.60009765625
1606.3364958123	2793.30004882813
1608.77148208096	2792.36669921875
1611.20571384435	2789.13330078125
1613.63919149806	2767.46655273438
1616.07191543745	2771.66674804688
1618.50388605759	2767.53344726563
1620.93510375332	2760.56665039063
1623.36556891922	2752.86669921875
1625.79528194957	2744.80004882813
1628.22424323843	2760.86669921875
1630.65245317959	2749.96655273438
1633.07991216659	2752.36669921875
1635.50662059269	2730.43334960938
1637.93257885091	2731.69995117188
1640.35778733401	2734.96655273438
1642.78224643447	2717.93334960938
1645.20595654456	2719.66674804688
1647.62891805624	2719.5
1650.05113136124	2699.60009765625
1652.47259685103	2704.80004882813
1654.89331491682	2704.06665039063
1657.31328594956	2704.2333984375
1659.73251033996	2698.43334960938
1662.15098847843	2670.5
1664.5687207552	2688.03344726563
1666.98570756015	2694.36669921875
1669.40194928298	2670.06665039063
1671.81744631311	2693.60009765625
1674.23219903968	2697.56665039063
1676.6462078516	2685.10009765625
1679.05947313753	2689.7333984375
1681.47199528586	2668.06665039063
1683.88377468472	2667.13330078125
1686.29481172201	2666.93334960938
1688.70510678534	2672.43334960938
1691.1146602621	2660.53344726563
1693.52347253941	2649.96655273438
1695.93154400414	2666.30004882813
1698.33887504288	2646.69995117188
1700.74546604203	2650.69995117188
1703.15131738766	2650.03344726563
1705.55642946563	2659.39990234375
1707.96080266155	2648
1710.36443736077	2639.2333984375
1712.76733394836	2634.33325195313
1715.16949280918	2637
1717.57091432782	2626.2666015625
1719.97159888861	2617.36669921875
1722.37154687563	2624.36669921875
1724.77075867272	2616.30004882813
1727.16923466345	2611.33325195313
1729.56697523117	2607.86669921875
1731.96398075894	2612.89990234375
1734.36025162958	2609.16674804688
1736.75578822568	2599.10009765625
1739.15059092957	2595.39990234375
1741.5446601233	2596.2333984375
1743.93799618871	2591.03344726563
1746.33059950738	2599.93334960938
1748.72247046061	2586.2666015625
1751.11360942949	2584.39990234375
1753.50401679484	2579.39990234375
1755.89369293724	2566.36669921875
1758.282638237	2558.19995117188
1760.6708530742	2574.06665039063
1763.05833782867	2569.13330078125
1765.44509287999	2553.56665039063
1767.83111860748	2571.83325195313
1770.21641539022	2545.7333984375
1772.60098360705	2561.86669921875
1774.98482363654	2551.66674804688
1777.36793585704	2539.13330078125
1779.75032064663	2562.80004882813
1782.13197838315	2544.53344726563
1784.51290944419	2550.46655273438
1786.8931142071	2543.63330078125
1789.27259304898	2531.56665039063
1791.65134634668	2518.80004882813
1794.0293744768	2525.03344726563
1796.40667781571	2526.03344726563
1798.7832567395	2531.43334960938
1801.15911162405	2519.2333984375
1803.53424284497	2510.53344726563
1805.90865077765	2513.66674804688
1808.28233579722	2511.56665039063
1810.65529827853	2510.80004882813
1813.02753859625	2505.89990234375
1815.39905712476	2497.39990234375
1817.76985423821	2501.16674804688
1820.13993031049	2501.7333984375
1822.50928571527	2512.66674804688
1824.87792082596	2485.69995117188
1827.24583601574	2489.16674804688
1829.61303165752	2485.56665039063
1831.97950812398	2487.86669921875
1834.34526578757	2501.36669921875
1836.71030502048	2476.83325195313
1839.07462619466	2485.46655273438
1841.43822968181	2462.83325195313
1843.80111585339	2464.43334960938
1846.16328508065	2471.96655273438
1848.52473773454	2478.2666015625
1850.88547418582	2475.69995117188
1853.24549480496	2463.66674804688
1855.60479996223	2461.93334960938
1857.96339002763	2461
1860.32126537094	2469.36669921875
1862.67842636168	2460.43334960938
1865.03487336914	2460.5
1867.39060676235	2443.53344726563
1869.74562691013	2441.86669921875
1872.09993418103	2443.96655273438
1874.45352894338	2425.86669921875
1876.80641156527	2425.39990234375
1879.15858241452	2429.10009765625
1881.51004185875	2425.63330078125
1883.86079026531	2434.03344726563
1886.21082800133	2419.5
1888.56015543368	2413.53344726563
1890.90877292901	2421.89990234375
1893.25668085372	2420.43334960938
1895.60387957397	2409.43334960938
1897.95036945571	2404.83325195313
1900.29615086459	2406.89990234375
1902.64122416608	2406.56665039063
1904.98558972538	2406.7333984375
1907.32924790747	2403.13330078125
1909.67219907708	2395.06665039063
1912.0144435987	2396.10009765625
1914.35598183659	2388.13330078125
1916.69681415477	2393.06665039063
1919.03694091703	2391.7333984375
1921.37636248691	2402.06665039063
1923.71507922772	2395.80004882813
1926.05309150253	2395.46655273438
1928.39039967419	2386.69995117188
1930.72700410527	2384.10009765625
1933.06290515816	2390.06665039063
1935.39810319497	2385.43334960938
1937.73259857759	2382.56665039063
1940.0663916677	2389.19995117188
1942.39948282669	2382.7333984375
1944.73187241576	2367.5
1947.06356079586	2369.06665039063
1949.3945483277	2362.33325195313
1951.72483537176	2366.06665039063
1954.05442228828	2366.60009765625
1956.38330943728	2362.80004882813
1958.71149717853	2358.80004882813
1961.03898587158	2363.10009765625
1963.36577587572	2358.06665039063
1965.69186755004	2357.10009765625
1968.01726125337	2367.10009765625
1970.34195734434	2358.03344726563
1972.66595618129	2344.2666015625
1974.98925812239	2335.16674804688
1977.31186352553	2348.89990234375
1979.63377274839	2341.60009765625
1981.95498614843	2335.83325195313
1984.27550408283	2334.66674804688
1986.59532690858	2336.43334960938
1988.91445498245	2325.39990234375
1991.23288866092	2324.5
1993.55062830029	2320.39990234375
1995.86767425662	2315.89990234375
1998.1840268857	2311.33325195313
2000.49968654315	2311.56665039063
2002.81465358431	2295.53344726563
2005.12892836433	2303.46655273438
2007.44251123808	2303.56665039063
2009.75540256023	2306.89990234375
2012.06760268523	2305.33325195313
2014.37911196728	2307.66674804688
2016.68993076037	2305.7666015625
2019.00005941822	2303.93334960938
2021.30949829435	2290.89990234375
2023.61824774207	2292.66674804688
2025.92630811442	2287.5
2028.23367976425	2295.93334960938
2030.54036304413	2277.83325195313
2032.84635830644	2278.39990234375
2035.15166590334	2283.43334960938
2037.45628618675	2282.10009765625
2039.76021950833	2272.43334960938
2042.06346621955	2275.7666015625
2044.36602667166	2272.10009765625
2046.66790121564	2284.96655273438
2048.96909020227	2277.06665039063
2051.26959398211	2275.13330078125
2053.56941290547	2266.39990234375
2055.86854732245	2275.2666015625
2058.16699758293	2266.96655273438
2060.46476403654	2276.7333984375
2062.76184703269	2253.83325195313
2065.05824692058	2269.7666015625
2067.35396404917	2262.5
2069.6489987672	2262.33325195313
2071.94335142317	2260.13330078125
2074.23702236539	2252.10009765625
2076.5300119419	2254.86669921875
2078.82232050054	2262.69995117188
2081.11394838893	2247.86669921875
2083.40489595445	2253.16674804688
2085.69516354426	2244.43334960938
2087.9847515053	2251.2333984375
2090.27366018428	2243.69995117188
2092.56188992769	2232.7666015625
2094.8494410818	2236.53344726563
2097.13631399264	2233.36669921875
2099.42250900604	2233.2333984375
2101.70802646759	2241.63330078125
2103.99286672265	2225.80004882813
2106.27703011638	2231.89990234375
2108.56051699371	2220.56665039063
2110.84332769933	2227.33325195313
2113.12546257773	2215
2115.40692197315	2220.66674804688
2117.68770622965	2206.86669921875
2119.96781569103	2214.56665039063
2122.24725070087	2204.30004882813
2124.52601160256	2206.60009765625
2126.80409873925	2200.30004882813
2129.08151245385	2199.03344726563
2131.35825308908	2202.30004882813
2133.63432098741	2206.86669921875
2135.90971649111	2192.80004882813
2138.18443994224	2202.06665039063
2140.4584916826	2191.06665039063
2142.73187205381	2197.16674804688
2145.00458139724	2199.33325195313
2147.27662005407	2182.93334960938
2149.54798836522	2186.5
2151.81868667143	2192.89990234375
2154.08871531321	2193.63330078125
2156.35807463083	2193.66674804688
2158.62676496436	2196.80004882813
2160.89478665366	2186.03344726563
2163.16214003833	2191.36669921875
2165.42882545782	2185.33325195313
2167.69484325129	2186.10009765625
2169.96019375772	2173
2172.22487731588	2168
2174.48889426428	2178
2176.75224494127	2169.06665039063
2179.01492968495	2169.10009765625
2181.27694883318	2172.60009765625
2183.53830272365	2167.43334960938
2185.7989916938	2167.69995117188
2188.05901608087	2170.5
2190.31837622188	2163.86669921875
2192.57707245363	2165.16674804688
2194.83510511271	2165.53344726563
2197.09247453547	2161.89990234375
2199.34918105809	2158.5
2201.60522501649	2156.93334960938
2203.8606067464	2148.39990234375
2206.11532658331	2152.69995117188
2208.36938486254	2147.53344726563
2210.62278191914	2146.06665039063
2212.87551808799	2136.7666015625
2215.12759370373	2141.10009765625
2217.37900910079	2138.80004882813
2219.62976461339	2142.66674804688
2221.87986057553	2140.83325195313
2224.129297321	2136.60009765625
2226.37807518338	2131.2333984375
2228.62619449604	2132.60009765625
2230.87365559212	2129
2233.12045880454	2132
2235.36660446605	2125.80004882813
2237.61209290915	2128.19995117188
2239.85692446612	2112.7333984375
2242.10109946907	2125.66674804688
2244.34461824986	2121.86669921875
2246.58748114013	2109.06665039063
2248.82968847136	2121.2666015625
2251.07124057477	2124.86669921875
2253.31213778138	2112.60009765625
2255.55238042201	2114.69995117188
2257.79196882725	2111.53344726563
2260.0309033275	2114.19995117188
2262.26918425293	2105.43334960938
2264.50681193351	2105.46655273438
2266.743786699	2107.60009765625
2268.98010887895	2111.19995117188
2271.21577880268	2109.43334960938
2273.45079679932	2097.19995117188
2275.68516319779	2097.39990234375
2277.91887832679	2106.69995117188
2280.15194251483	2097.30004882813
2282.38435609018	2096.83325195313
2284.61611938093	2115.16674804688
2286.84723271493	2098.89990234375
2289.07769641985	2100
2291.30751082315	2098.83325195313
2293.53667625205	2083.80004882813
2295.76519303359	2096.66674804688
2297.9930614946	2086.16674804688
2300.2202819617	2077.36669921875
2302.44685476129	2077.56665039063
2304.67278021956	2087.10009765625
2306.89805866252	2093.66674804688
2309.12269041595	2078.36669921875
2311.34667580543	2068.46655273438
2313.57001515633	2078.2666015625
2315.7927087938	2079.30004882813
2318.01475704282	2081.53344726563
2320.23616022813	2077.80004882813
2322.45691867427	2073.60009765625
2324.67703270558	2067.60009765625
2326.8965026462	2066.16674804688
2329.11532882004	2065.06665039063
2331.33351155084	2064.2666015625
2333.5510511621	2064.66674804688
2335.76794797712	2067.7333984375
2337.98420231903	2060.63330078125
2340.19981451071	2059.2666015625
2342.41478487486	2055.66674804688
2344.62911373397	2061.46655273438
2346.84280141032	2052.89990234375
2349.05584822599	2047.80004882813
2351.26825450286	2051.06665039063
2353.4800205626	2056.36669921875
2355.69114672668	2055.89990234375
2357.90163331637	2051.30004882813
2360.11148065271	2052.93334960938
2362.32068905658	2054.33325195313
2364.52925884862	2051.30004882813
2366.73719034929	2045.26672363281
2368.94448387883	2044.96667480469
2371.15113975729	2045.59997558594
2373.35715830451	2034.30004882813
2375.56253984014	2052.2333984375
2377.76728468361	2034.56665039063
2379.97139315416	2034.40002441406
2382.17486557082	2028.86669921875
2384.37770225244	2041.93334960938
2386.57990351762	2034.23327636719
2388.78146968482	2033.23327636719
2390.98240107226	2031.13330078125
2393.18269799796	2026.23327636719
2395.38236077975	2031.40002441406
2397.58138973527	2025.53332519531
2399.77978518193	2019.43334960938
2401.97754743697	2019.69995117188
2404.17467681739	2023.09997558594
2406.37117364005	2028.03332519531
2408.56703822155	2018.40002441406
2410.76227087834	2027.16662597656
2412.95687192662	2023.80004882813
2415.15084168243	2020.33337402344
2417.3441804616	2022.93334960938
2419.53688857976	2012.96667480469
2421.72896635235	2018.5
2423.92041409458	2008.59997558594
2426.11123212149	2016.43334960938
2428.30142074794	2012.16662597656
2430.49098028853	2009.23327636719
2432.67991105773	2005.56665039063
2434.86821336976	2004.76672363281
2437.05588753867	2009.63330078125
2439.24293387832	2002.86669921875
2441.42935270234	2001.03332519531
2443.6151443242	2003
2445.80030905714	2003.73327636719
2447.98484721423	2000.13330078125
2450.16875910832	1994.5
2452.35204505209	2000
2454.534705358	1995.80004882813
2456.71674033832	1998.59997558594
2458.89815030514	1991.63330078125
2461.07893557033	1990.90002441406
2463.25909644559	1994.96667480469
2465.43863324239	1984
2467.61754627204	1994.09997558594
2469.79583584564	1985.30004882813
2471.97350227409	1981.80004882813
2474.1505458681	1992.59997558594
2476.3269669382	1980.33337402344
2478.50276579469	1983.06665039063
2480.6779427477	1978.76672363281
2482.85249810719	1982.73327636719
2485.02643218287	1984.13330078125
2487.19974528431	1980.03332519531
2489.37243772084	1970.13330078125
2491.54450980163	1974.80004882813
2493.71596183564	1976.16662597656
2495.88679413165	1978.40002441406
2498.05700699824	1969.09997558594
2500.22660074379	1983.43334960938
2502.39557567649	1975.5
2504.56393210436	1969.53332519531
2506.7316703352	1964.19995117188
2508.89879067663	1974.36669921875
2511.06529343607	1967.23327636719
2513.23117892076	1966.73327636719
2515.39644743773	1953.66662597656
2517.56109929385	1962
2519.72513479578	1961.5
2521.88855424997	1966.80004882813
2524.05135796272	1953.56665039063
2526.2135462401	1958.96667480469
2528.37511938801	1949.73327636719
2530.53607771217	1958.53332519531
2532.69642151808	1954.19995117188
2534.85615111108	1948.16662597656
2537.0152667963	1954.13330078125
2539.17376887868	1952.93334960938
2541.33165766298	1946.96667480469
2543.48893345378	1941.43334960938
2545.64559655545	1951
2547.80164727218	1952.23327636719
2549.95708590796	1945.59997558594
2552.11191276663	1949.73327636719
2554.26612815179	1944.19995117188
2556.41973236687	1955.09997558594
2558.57272571515	1944.16662597656
2560.72510849965	1935.93334960938
2562.87688102327	1942.23327636719
2565.02804358867	1936.73327636719
2567.17859649836	1942.69995117188
2569.32854005465	1936.66662597656
2571.47787455966	1938.69995117188
2573.62660031532	1941.80004882813
2575.77471762338	1936.19995117188
2577.92222678539	1941.03332519531
2580.06912810274	1940.13330078125
2582.21542187661	1938.03332519531
2584.361108408	1929.63330078125
2586.50618799773	1934.26672363281
2588.65066094643	1929.30004882813
2590.79452755453	1922.56665039063
2592.93778812232	1931.96667480469
2595.08044294984	1921.03332519531
2597.22249233698	1928.43334960938
2599.36393658346	1922.43334960938
2601.5047759888	1919.63330078125
2603.64501085232	1921.09997558594
2605.78464147317	1926.93334960938
2607.92366815031	1919.56665039063
2610.06209118253	1918.66662597656
2612.19991086842	1917.03332519531
2614.3371275064	1919.80004882813
2616.47374139469	1924.73327636719
2618.60975283133	1923.26672363281
2620.74516211419	1912.09997558594
2622.87996954095	1914.5
2625.01417540909	1912.06665039063
2627.14778001595	1921.43334960938
2629.28078365863	1915.09997558594
2631.41318663409	1908.83337402344
2633.5449892391	1910.93334960938
2635.67619177023	1907.63330078125
2637.80679452388	1909.86669921875
2639.93679779629	1910.23327636719
2642.06620188347	1907.13330078125
2644.19500708128	1905.76672363281
2646.3232136854	1904.96667480469
2648.45082199132	1895.80004882813
2650.57783229437	1896.96667480469
2652.70424488964	1901.83337402344
2654.8300600721	1901.09997558594
2656.95527813653	1907.93334960938
2659.07989937751	1904.40002441406
2661.20392408944	1895.63330078125
2663.32735256655	1904.69995117188
2665.45018510289	1901.69995117188
2667.57242199235	1899.19995117188
2669.69406352858	1896.33337402344
2671.81511000512	1894.03332519531
2673.93556171528	1895.93334960938
2676.05541895222	1892.83337402344
2678.17468200891	1889.26672363281
2680.29335117814	1891.56665039063
2682.41142675254	1890.46667480469
2684.52890902453	1893.76672363281
2686.64579828637	1897.80004882813
2688.76209483014	1888.5
2690.87779894775	1891.09997558594
2692.99291093091	1897.33337402344
2695.10743107118	1889.86669921875
2697.22135965991	1890.69995117188
2699.33469698832	1886
2701.4474433474	1887.16662597656
2703.559599028	1882.96667480469
2705.67116432076	1880.90002441406
2707.78213951619	1886.36669921875
2709.89252490459	1882.63330078125
2712.00232077608	1881.69995117188
2714.11152742063	1879.23327636719
2716.220145128	1880.83337402344
2718.32817418781	1879.19995117188
2720.43561488948	1878.66662597656
2722.54246752227	1880
2724.64873237524	1871.23327636719
2726.7544097373	1873.66662597656
2728.85949989718	1877.43334960938
2730.96400314343	1876
2733.06791976442	1874.56665039063
2735.17125004836	1874.90002441406
2737.27399428326	1870.26672363281
2739.376152757	1868.76672363281
2741.47772575724	1867
2743.5787135715	1871.96667480469
2745.6791164871	1864.83337402344
2747.7789347912	1863.63330078125
2749.87816877078	1864.73327636719
2751.97681871267	1859.56665039063
2754.07488490349	1859.66662597656
2756.17236762972	1861.26672363281
2758.26926717764	1856.93334960938
2760.36558383337	1861.73327636719
2762.46131788286	1856.16662597656
2764.5564696119	1860.46667480469
2766.65103930608	1861.66662597656
2768.74502725083	1849.80004882813
2770.83843373141	1854.26672363281
2772.93125903291	1855
2775.02350344025	1861.06665039063
2777.11516723818	1855.40002441406
2779.20625071126	1855.30004882813
2781.2967541439	1853.36669921875
2783.38667782033	1855.36669921875
2785.47602202461	1852.83337402344
2787.56478704065	1857.13330078125
2789.65297315215	1852.69995117188
2791.74058064266	1845.76672363281
2793.82760979557	1842.59997558594
2795.91406089409	1850.93334960938
2797.99993422127	1854.73327636719
2800.08523005996	1851.23327636719
2802.16994869288	1842.86669921875
2804.25409040255	1843
2806.33765547133	1850.19995117188
2808.42064418145	1851.33337402344
2810.5030568149	1850.59997558594
2812.58489365355	1843.09997558594
2814.66615497909	1843.90002441406
2816.74684107304	1841.93334960938
2818.82695221676	1842.86669921875
2820.90648869143	1844.19995117188
2822.98545077806	1840.73327636719
2825.06383875751	1835.96667480469
2827.14165291046	1842.13330078125
2829.21889351743	1837.5
2831.29556085876	1845.83337402344
2833.37165521463	1840.80004882813
2835.44717686507	1829.90002441406
2837.5221260899	1832.23327636719
2839.59650316883	1833.90002441406
2841.67030838136	1839.5
2843.74354200684	1830.26672363281
2845.81620432445	1828.36669921875
2847.88829561323	1838.36669921875
2849.959816152	1830.63330078125
2852.03076621946	1833.26672363281
2854.10114609413	1835.96667480469
2856.17095605437	1828.16662597656
2858.24019637836	1822.80004882813
2860.30886734413	1829.86669921875
2862.37696922954	1830.40002441406
2864.4445023123	1826.53332519531
2866.51146686992	1822.66662597656
2868.57786317977	1825.53332519531
2870.64369151908	1825.56665039063
2872.70895216485	1826.69995117188
2874.77364539399	1820.19995117188
2876.8377714832	1823.66662597656
2878.90133070902	1822.63330078125
2880.96432334785	1820.93334960938
2883.0267496759	1826.69995117188
2885.08860996923	1820.16662597656
2887.14990450375	1824.83337402344
2889.21063355518	1817.46667480469
2891.27079739911	1822.46667480469
2893.33039631093	1817.19995117188
2895.38943056589	1813.5
2897.44790043908	1816.16662597656
2899.50580620543	1814.5
2901.56314813969	1818
2903.61992651646	1810.69995117188
2905.67614161019	1808.43334960938
2907.73179369514	1816.09997558594
2909.78688304545	1808.53332519531
2911.84140993506	1821.30004882813
2913.89537463776	1811.56665039063
2915.9487774272	1809.86669921875
2918.00161857684	1808.30004882813
2920.05389836	1816.59997558594
2922.10561704984	1813.33337402344
2924.15677491934	1813.76672363281
2926.20737224134	1813.5
2928.25740928852	1808.33337402344
2930.30688633339	1806.09997558594
2932.3558036483	1809.03332519531
2934.40416150545	1800.63330078125
2936.45196017688	1807.23327636719
2938.49919993448	1803.19995117188
2940.54588104994	1802.53332519531
2942.59200379485	1807.66662597656
2944.63756844059	1806.23327636719
2946.68257525843	1799.96667480469
2948.72702451943	1800.53332519531
2950.77091649454	1795.80004882813
2952.81425145452	1807.26672363281
2954.85702966999	1796.90002441406
2956.8992514114	1803
2958.94091694905	1798.16662597656
2960.98202655309	1798.36669921875
2963.02258049349	1792.59997558594
2965.06257904009	1801.90002441406
2967.10202246256	1796.09997558594
2969.14091103041	1792.43334960938
2971.179245013	1793.5
2973.21702467954	1797.13330078125
2975.25425029907	1795.80004882813
2977.29092214048	1790.13330078125
2979.3270404725	1790.40002441406
2981.36260556373	1786.73327636719
2983.39761768257	1796.86669921875
2985.4320770973	1798.59997558594
2987.46598407603	1790.30004882813
2989.49933888673	1798.13330078125
2991.53214179719	1785.76672363281
2993.56439307507	1781.53332519531
2995.59609298786	1798.30004882813
2997.6272418029	1787.26672363281
2999.65783978738	1783.36669921875
3001.68788720834	1784.93334960938
3003.71738433264	1782.59997558594
3005.74633142702	1788.19995117188
3007.77472875806	1783.56665039063
3009.80257659215	1783.69995117188
3011.82987519558	1778.80004882813
3013.85662483445	1786.09997558594
3015.88282577473	1782.73327636719
3017.90847828223	1782.73327636719
3019.93358262258	1782.53332519531
3021.95813906131	1783.63330078125
3023.98214786375	1783.5
3026.00560929511	1784.13330078125
3028.02852362043	1781.09997558594
3030.05089110461	1779
3032.07271201238	1780.16662597656
3034.09398660834	1780.36669921875
3036.11471515693	1773.13330078125
3038.13489792244	1774
3040.154535169	1775.96667480469
3042.1736271606	1776.93334960938
3044.19217416107	1776.09997558594
3046.21017643411	1773.90002441406
3048.22763424324	1774.30004882813
3050.24454785186	1771.56665039063
3052.26091752319	1774.36669921875
3054.27674352032	1773.23327636719
3056.29202610619	1772.56665039063
3058.30676554358	1772.93334960938
3060.32096209513	1766.46667480469
3062.33461602332	1768.80004882813
3064.34772759049	1776.46667480469
3066.36029705884	1768.76672363281
3068.37232469039	1771.26672363281
3070.38381074705	1771.90002441406
3072.39475549055	1772.30004882813
3074.40515918249	1773.06665039063
3076.41502208432	1772.86669921875
3078.42434445732	1764.66662597656
3080.43312656266	1766.26672363281
3082.44136866134	1762.06665039063
3084.4490710142	1764.86669921875
3086.45623388196	1768.73327636719
3088.46285752518	1769.16662597656
3090.46894220427	1763.90002441406
3092.4744881795	1766.06665039063
3094.47949571099	1769.83337402344
3096.4839650587	1763.03332519531
3098.48789648246	1762.36669921875
3100.49129024196	1763.63330078125
3102.49414659673	1765.23327636719
3104.49646580615	1759.53332519531
3106.49824812947	1758.73327636719
3108.49949382578	1760.36669921875
3110.50020315404	1759.30004882813
3112.50037637304	1758.66662597656
3114.50001374145	1761.59997558594
3116.49911551778	1756.40002441406
3118.4976819604	1760.59997558594
3120.49571332755	1755.33337402344
3122.49320987728	1762.23327636719
3124.49017186754	1756.96667480469
3126.48659955614	1755.33337402344
3128.48249320069	1762.03332519531
3130.47785305872	1760.96667480469
3132.47267938758	1754.90002441406
3134.46697244449	1758.53332519531
3136.46073248652	1756.23327636719
3138.45395977059	1755.80004882813
3140.44665455349	1753.93334960938
3142.43881709187	1748.76672363281
3144.43044764222	1750.03332519531
3146.4215464609	1753.96667480469
3148.41211380411	1750.46667480469
3150.40214992795	1752.36669921875
3152.39165508832	1751.40002441406
3154.38062954101	1748.83337402344
3156.36907354169	1747.59997558594
3158.35698734583	1749.16662597656
3160.34437120881	1753.03332519531
3162.33122538583	1744.83337402344
3164.317550132	1752.30004882813
3166.30334570222	1750.80004882813
3168.28861235132	1748.23327636719
3170.27335033392	1746.63330078125
3172.25755990455	1750.36669921875
3174.24124131759	1747.30004882813
3176.22439482726	1750.23327636719
3178.20702068766	1744.86669921875
3180.18911915272	1746.86669921875
3182.17069047628	1746.13330078125
3184.151734912	1739.13330078125
3186.13225271341	1739.90002441406
3188.1122441339	1742.26672363281
3190.09170942673	1741.83337402344
3192.070648845	1744.30004882813
3194.0490626417	1748.90002441406
3196.02695106966	1739.69995117188
3198.00431438156	1748.90002441406
3199.98115282998	1742.56665039063
3201.95746666733	1741.53332519531
3203.93325614589	1739.96667480469
3205.9085215178	1738.73327636719
3207.88326303507	1736.96667480469
3209.85748094955	1738.19995117188
3211.83117551299	1743.86669921875
3213.80434697697	1743.90002441406
3215.77699559295	1738
3217.74912161224	1741.83337402344
3219.72072528601	1737.13330078125
3221.69180686531	1734.90002441406
3223.66236660105	1732.26672363281
3225.632404744	1733.76672363281
3227.60192154477	1735.90002441406
3229.57091725387	1738.23327636719
3231.53939212167	1733.19995117188
3233.50734639837	1738.5
3235.47478033407	1732.56665039063
3237.44169417871	1732.30004882813
3239.40808818212	1732.19995117188
3241.37396259396	1735.80004882813
3243.33931766379	1728.80004882813
3245.30415364101	1731.90002441406
3247.2684707749	1730.53332519531
3249.2322693146	1732.36669921875
3251.1955495091	1732.46667480469
3253.15831160728	1729.40002441406
3255.12055585788	1731.80004882813
3257.08228250948	1730.73327636719
3259.04349181057	1731.83337402344
3261.00418400947	1728.36669921875
3262.96435935437	1725.06665039063
3264.92401809335	1732.76672363281
3266.88316047434	1726.09997558594
3268.84178674512	1724.19995117188
3270.79989715338	1726.53332519531
3272.75749194662	1728.46667480469
3274.71457137227	1727.96667480469
3276.67113567758	1729.36669921875
3278.62718510967	1728.09997558594
3280.58271991556	1722.26672363281
3282.53774034211	1724.76672363281
3284.49224663606	1732.26672363281
3286.446239044	1724.26672363281
3288.39971781241	1732.16662597656
3290.35268318763	1724.40002441406
3292.30513541586	1726.63330078125
3294.25707474319	1727.19995117188
3296.20850141555	1723.43334960938
3298.15941567877	1726.30004882813
3300.10981777851	1725.26672363281
3302.05970796035	1725.86669921875
3304.00908646969	1725.33337402344
3305.95795355183	1722.16662597656
3307.90630945191	1727.43334960938
3309.85415441499	1720.56665039063
3311.80148868595	1722.86669921875
3313.74831250956	1725.90002441406
3315.69462613047	1724.23327636719
3317.64042979318	1720.76672363281
3319.58572374208	1718.06665039063
3321.5305082214	1721.90002441406
3323.47478347529	1714.46667480469
3325.41854974772	1720.43334960938
3327.36180728256	1718.59997558594
3329.30455632355	1715.5
3331.24679711428	1717.56665039063
3333.18852989825	1721.03332519531
3335.12975491879	1721.69995117188
3337.07047241913	1718.76672363281
3339.01068264237	1718.80004882813
3340.95038583146	1723.09997558594
3342.88958222924	1717
3344.82827207842	1716.23327636719
3346.76645562159	1717.13330078125
3348.70413310118	1714.69995117188
3350.64130475955	1720.43334960938
3352.57797083888	1716.59997558594
3354.51413158125	1717.69995117188
3356.4497872286	1715.66662597656
3358.38493802276	1711.76672363281
3360.31958420541	1710.5
3362.25372601813	1714
3364.18736370234	1714.90002441406
3366.12049749938	1708.59997558594
3368.05312765043	1711.53332519531
3369.98525439655	1713.26672363281
3371.91687797868	1712.30004882813
3373.84799863763	1706.59997558594
3375.77861661409	1709.66662597656
3377.70873214862	1710.16662597656
3379.63834548165	1710.40002441406
3381.5674568535	1709.09997558594
3383.49606650436	1709.03332519531
3385.42417467428	1707.30004882813
3387.35178160321	1710.83337402344
3389.27888753096	1710.86669921875
3391.20549269723	1710.53332519531
3393.13159734156	1706.93334960938
3395.05720170341	1709.26672363281
3396.9823060221	1705.96667480469
3398.90691053682	1706.90002441406
3400.83101548664	1708.53332519531
3402.75462111052	1708.63330078125
3404.67772764726	1707.23327636719
3406.60033533558	1701.90002441406
3408.52244441406	1703.33337402344
3410.44405512115	1709.69995117188
3412.36516769519	1702.73327636719
3414.28578237438	1706.86669921875
3416.20589939683	1709.40002441406
3418.12551900049	1704.19995117188
3420.04464142321	1700.93334960938
3421.96326690272	1702.43334960938
3423.88139567661	1699.76672363281
3425.79902798237	1704.93334960938
3427.71616405736	1701.36669921875
3429.63280413881	1705
3431.54894846384	1702.46667480469
3433.46459726945	1703.53332519531
3435.37975079251	1701.26672363281
3437.29440926978	1705.36669921875
3439.2085729379	1703.43334960938
3441.12224203337	1698.26672363281
3443.03541679258	1703.13330078125
3444.94809745182	1704.96667480469
3446.86028424724	1704.73327636719
3448.77197741487	1698.03332519531
3450.68317719062	1696.53332519531
3452.5938838103	1700.66662597656
3454.50409750956	1699.76672363281
3456.41381852399	1700.96667480469
3458.323047089	1698.23327636719
3460.23178343991	1698.63330078125
3462.14002781194	1701.86669921875
3464.04778044016	1700.59997558594
3465.95504155952	1704.53332519531
3467.86181140489	1697.19995117188
3469.76809021097	1702.90002441406
3471.67387821239	1699.40002441406
3473.57917564362	1703.13330078125
3475.48398273906	1697.69995117188
3477.38829973294	1696.36669921875
3479.29212685941	1694.13330078125
3481.19546435248	1694.93334960938
3483.09831244606	1694.83337402344
3485.00067137394	1698.33337402344
3486.90254136979	1691.46667480469
3488.80392266715	1693.46667480469
3490.70481549947	1694.5
3492.60522010006	1691.36669921875
3494.50513670213	1689.59997558594
3496.40456553876	1695.33337402344
3498.30350684293	1694.36669921875
3500.20196084749	1693.56665039063
3502.09992778517	1690.09997558594
3503.99740788862	1689.36669921875
3505.89440139033	1690.30004882813
3507.79090852268	1696.73327636719
3509.68692951798	1690.80004882813
3511.58246460837	1686.53332519531
3513.47751402591	1691.03332519531
3515.37207800254	1688.30004882813
3517.26615677005	1689.80004882813
3519.15975056017	1689
3521.05285960448	1689.03332519531
3522.94548413447	1688.73327636719
3524.83762438148	1688.06665039063
3526.72928057678	1692
3528.62045295149	1686.93334960938
3530.51114173663	1690.53332519531
3532.40134716312	1687.96667480469
3534.29106946175	1687.09997558594
3536.18030886319	1686
3538.06906559802	1687.63330078125
3539.95733989669	1683.19995117188
3541.84513198955	1685.73327636719
3543.73244210682	1685.63330078125
3545.61927047863	1690.46667480469
3547.50561733497	1685.23327636719
3549.39148290574	1686.93334960938
3551.27686742073	1692.06665039063
3553.1617711096	1686.46667480469
3555.0461942019	1687.23327636719
3556.93013692709	1687.13330078125
3558.8135995145	1688.83337402344
3560.69658219336	1682.5
3562.57908519277	1686.53332519531
3564.46110874173	1684.56665039063
3566.34265306914	1682.86669921875
3568.22371840378	1681.56665039063
3570.10430497431	1685
3571.9844130093	1683.53332519531
3573.86404273718	1681.5
3575.74319438631	1686
3577.6218681849	1684.09997558594
3579.50006436108	1683
3581.37778314286	1680.03332519531
3583.25502475812	1683.19995117188
3585.13178943467	1679.06665039063
3587.00807740018	1679.09997558594
3588.88388888222	1682.76672363281
3590.75922410827	1677.63330078125
3592.63408330565	1679.83337402344
3594.50846670163	1684.23327636719
3596.38237452334	1681.09997558594
3598.2558069978	1676.43334960938
3600.12876435193	1678.93334960938
3602.00124681255	1679.56665039063
3603.87325460636	1679.40002441406
3605.74478795995	1678.96667480469
3607.6158470998	1678.83337402344
3609.48643225231	1676.36669921875
3611.35654364373	1680.5
3613.22618150023	1677.76672363281
3615.09534604788	1675.40002441406
3616.96403751262	1675.93334960938
3618.8322561203	1676.40002441406
3620.70000209664	1671.59997558594
3622.56727566728	1675.80004882813
3624.43407705775	1676.06665039063
3626.30040649346	1673.93334960938
3628.16626419972	1675
3630.03165040174	1670.90002441406
3631.89656532461	1675.36669921875
3633.76100919333	1670.03332519531
3635.62498223279	1674.59997558594
3637.48848466776	1669.66662597656
3639.35151672293	1673.56665039063
3641.21407862285	1674.26672363281
3643.07617059201	1672.56665039063
3644.93779285476	1671.66662597656
3646.79894563536	1671.73327636719
3648.65962915796	1671.59997558594
3650.5198436466	1675.26672363281
3652.37958932523	1673.36669921875
3654.2388664177	1669.03332519531
3656.09767514771	1668.80004882813
3657.95601573893	1669.33337402344
3659.81388841486	1671.43334960938
3661.67129339892	1670.76672363281
3663.52823091445	1672.06665039063
3665.38470118466	1668.80004882813
3667.24070443265	1669.76672363281
3669.09624088143	1666.23327636719
3670.95131075392	1668.19995117188
3672.80591427291	1666.16662597656
3674.66005166111	1671.23327636719
3676.51372314112	1664.63330078125
3678.36692893542	1666.96667480469
3680.21966926642	1665.66662597656
3682.07194435639	1671.83337402344
3683.92375442755	1667.40002441406
3685.77509970196	1666.09997558594
3687.62598040162	1668.80004882813
3689.4763967484	1666.33337402344
3691.32634896409	1659.83337402344
3693.17583727038	1665.46667480469
3695.02486188884	1664.56665039063
