-45.2401887661565	1571.06665039063
-42.2571416371046	1571.59997558594
-39.2751473659741	1571.43334960938
-36.294205364348	1571.83337402344
-33.3143150441689	1570.43334960938
-30.3354758177508	1571.13330078125
-27.3576870977546	1571.03332519531
-24.3809482972486	1571.69995117188
-21.4052588296189	1570.59997558594
-18.4306181086421	1571.46667480469
-15.4570255484567	1571.90002441406
-12.484480563567	1571.69995117188
-9.51298256884248	1572.43334960938
-6.54253097950557	1578.5
-3.57312521115564	1614.03332519531
-0.604764679752472	1748.43334960938
2.36255119837996	1838.16662597656
5.32882300654979	1697.46667480469
8.29405132772162	1593.90002441406
11.2582367444606	1573.80004882813
14.221379838993	1572.16662597656
17.1834811931863	1572.80004882813
20.1445413885255	1572
23.1045610061495	1571.03332519531
26.0635406268193	1571.06665039063
29.0214808309505	1572.53332519531
31.9783821985772	1571.63330078125
34.9342453093885	1573
37.889070742705	1572.5
40.8428590774668	1573.03332519531
43.7956108922979	1573.40002441406
46.7473267654063	1574.16662597656
49.6980072746767	1573.80004882813
52.6476529976064	1577.16662597656
55.5962645113619	1585.59997558594
58.5438423927148	1619.53332519531
61.4903872181026	1712.56665039063
64.4358995635843	1935.66662597656
67.3803800048697	2358.43334960938
70.3238291172945	3022.39990234375
73.2662474758495	3996.39990234375
76.2076356551565	5307.93310546875
79.1479942294767	6676.36669921875
82.087323772719	7774.7333984375
85.025624858416	8318.599609375
87.9628980597688	8444.099609375
90.8991439495829	8494.6337890625
93.8343631003365	8564.900390625
96.7685560841253	8678.7333984375
99.7017234727059	8786
102.633865837465	8794.1669921875
105.564983749419	8731.1669921875
108.49507777925	8644.8662109375
111.424148497276	8591.900390625
114.352196473425	8493.56640625
117.27922227732	8528.466796875
120.205226478184	8521.43359375
123.130209644899	8551.533203125
126.054172346	8592.2666015625
128.977115149633	8597.2001953125
131.899038623609	8591.2666015625
134.819943335381	8601.06640625
137.73982985205	8622.43359375
140.658698740338	8592.1337890625
143.576550566638	8642.2666015625
146.49338589696	8619.400390625
149.409205296978	8645
152.324009332002	8610.2666015625
155.237798566978	8527.2666015625
158.150573566513	8443.033203125
161.06233489485	8390.43359375
163.973083115868	8267.400390625
166.882818793097	8143.7666015625
169.791542489729	8148.39990234375
172.699254768567	8073.43310546875
175.60595619209	8155.39990234375
178.5116473224	8145.43310546875
181.416328721259	8119.466796875
184.320000950057	8059.2998046875
187.222664569858	8094.7666015625
190.124320141336	8092.466796875
193.024968224852	8033.2666015625
195.924609380368	8004.33349609375
198.823244167539	7936.33349609375
201.720873145623	7886.7998046875
204.617496873556	7882.43310546875
207.513115909906	7897.2666015625
210.407730812889	7878.89990234375
213.301342140378	7866.7001953125
216.19395044987	7910.43310546875
219.085556298543	7898.466796875
221.976160243188	7996.13330078125
224.865762840274	8117.5
227.754364645889	8266.6669921875
230.641966215796	8288.599609375
233.528568105389	8299.8330078125
236.414170869724	8201.966796875
239.298775063472	8121.36669921875
242.182381241009	8026.36669921875
245.064989956303	8019.033203125
247.946601763011	8029.63330078125
250.827217214431	8000.13330078125
253.706836863485	7963.83349609375
256.585461262776	7933.033203125
259.463090964538	7920.7998046875
262.339726520655	7915.83349609375
265.215368482684	7898.13330078125
268.090017401811	7909.66650390625
270.963673828854	7879.7001953125
273.83633831433	7954.033203125
276.708011408363	7959.966796875
279.578693660757	7991.2998046875
282.448385620947	8058.2666015625
285.317087838035	8148.2666015625
288.184800860754	8195.8330078125
291.051525237502	8301.599609375
293.91726151634	8417.466796875
296.782010244956	8558.06640625
299.645771970707	8806.2001953125
302.508547240595	9073.2666015625
305.370336601275	9158
308.231140599056	8937.6337890625
311.090959779906	8652.06640625
313.949794689425	8388.06640625
316.807645872888	8257.900390625
319.664513875216	8160.10009765625
322.520399240978	8035.66650390625
325.375302514399	7929.63330078125
328.229224239362	7824.13330078125
331.082164959406	7789.966796875
333.934125217701	7730.13330078125
336.785105557106	7718.89990234375
339.63510652011	7686.033203125
342.484128648865	7628.2333984375
345.332172485161	7617.2001953125
348.179238570481	7579.466796875
351.025327445927	7544
353.870439652258	7517.63330078125
356.714575729916	7552.63330078125
359.557736218976	7554.966796875
362.399921659154	7609.2001953125
365.241132589866	7682.2998046875
368.081369550147	7944.966796875
370.9206330787	8316.3330078125
373.758923713884	9039.466796875
376.596241993719	10593.900390625
379.432588455865	13650.099609375
382.267963637662	16489.06640625
385.102368076089	15201.033203125
387.935802307795	11271.06640625
390.76826686907	8809.2666015625
393.599762295869	8333.7001953125
396.430289123809	9310.900390625
399.259847888169	12306.2666015625
402.088439123881	17953.732421875
404.916063365514	22425.966796875
407.742721147318	20122.69921875
410.568413003215	14207.7666015625
413.393139466752	10276.466796875
416.216901071157	8582.466796875
419.039698349307	7816.16650390625
421.861531833736	7450.2666015625
424.682402056651	7235.7998046875
427.502309549909	7069.56689453125
430.321254845016	7037.2333984375
433.139238473162	7018.86669921875
435.956260965177	7037.533203125
438.77232285156	7030.5
441.587424662468	7001.83349609375
444.401566927712	7039.2333984375
447.214750176775	7103.2333984375
450.026974938794	7179.7666015625
452.83824174257	7131.39990234375
455.648551116567	6930.16650390625
458.457903588894	6733.5
461.26629968734	6508.2666015625
464.073739939357	6349.93310546875
466.880224872035	6082
469.685755012153	5803.56689453125
472.49033088614	5508.56689453125
475.293953020089	5324.36669921875
478.096621939743	5181.10009765625
480.898338170538	5148
483.699102237533	5203.966796875
486.498914665491	5279.5
489.297775978795	5421.93310546875
492.095686701534	5625.36669921875
494.892647357429	5847.93310546875
497.688658469877	6293.16650390625
500.483720561944	6975.466796875
503.277834156342	8157.13330078125
506.070999775463	10206.7001953125
508.863217941361	14000.033203125
511.654489175756	20895.19921875
514.444814000016	32645.30078125
517.2341929352	48854
520.022626502005	61599.3984375
522.810115220818	61931.96484375
525.596659611673	51935.56640625
528.382260194271	40125.5
531.166917487996	30983.267578125
533.950632011879	24920.533203125
536.73340428462	20964.19921875
539.515234824599	18152.099609375
542.296124149831	16275.5
545.076072778037	14738.56640625
547.855081226582	13642.6337890625
550.633150012498	12746.5
553.410279652488	11987.6669921875
556.186470662915	11414.1337890625
558.96172355983	11000.1337890625
561.736038858928	10584.8662109375
564.509417075582	10315.599609375
567.281858724831	10088.099609375
570.05336432138	9773.400390625
572.823934379622	9491.43359375
575.593569413579	9193.5
578.362269936978	9008.8330078125
581.130036463186	8795.8330078125
583.896869505276	8674.2666015625
586.662769575936	8569.466796875
589.427737187587	8534.533203125
592.191772852261	8470
594.954877081707	8390.1337890625
597.717050387307	8294.6669921875
600.478293280132	8123.13330078125
603.238606270918	7915.60009765625
605.997989870071	7804.06689453125
608.756444587674	7733.033203125
611.51397093347	7916.966796875
614.270569416885	8173.2001953125
617.026240546994	8539.1337890625
619.780984832579	8650.7001953125
622.534802782051	8527.56640625
625.28769490353	8297.599609375
628.039661704777	8018.83349609375
630.790703693254	7842.033203125
633.540821376072	7686.7001953125
636.290015260021	7647
639.038285851557	7555.2001953125
641.785633656838	7518.7666015625
644.53205918164	7369.033203125
647.277562931475	7197.39990234375
650.022145411487	7038.2666015625
652.765807126504	6956.60009765625
655.508548581018	6848.86669921875
658.250370279212	6821.93310546875
660.991272724927	6812.2998046875
663.731256421695	6786.43310546875
666.470321872704	6775.89990234375
669.208469580824	6756.33349609375
671.945700048608	6752.966796875
674.682013778259	6702.2001953125
677.417411271689	6653.13330078125
680.151893030452	6557.7666015625
682.885459555808	6512.06689453125
685.618111348654	6422.7001953125
688.349848909595	6357.2998046875
691.080672738909	6344.2333984375
693.810583336532	6332.2666015625
696.539581202094	6269.2998046875
699.267666834878	6240.56689453125
701.994840733876	6184.7666015625
704.721103397717	6145.466796875
707.446455324753	6107.5
710.17089701297	6077.86669921875
712.894428960055	6019.93310546875
715.617051663367	6032.7333984375
718.338765619947	6001.7666015625
721.059571326491	6028.86669921875
723.77946927941	6006
726.498459974761	6014.86669921875
729.216543908288	6014.86669921875
731.933721575429	6037.56689453125
734.649993471274	6058.533203125
737.365360090615	6078.2001953125
740.079821927902	6109.033203125
742.793379477287	6170.2001953125
745.506033232575	6193.86669921875
748.217783687274	6198.39990234375
750.928631334558	6153.7998046875
753.638576667294	6142.39990234375
756.347620177996	6146.5
759.055762358899	6068.36669921875
761.763003701896	6006.2998046875
764.469344698568	5944.36669921875
767.174785840164	5917.60009765625
769.879327617621	5914.89990234375
772.582970521569	5928.966796875
775.285715042305	5959.13330078125
777.98756166981	5983.83349609375
780.688510893745	5994.16650390625
783.388563203461	5989.7998046875
786.087719087968	5941.533203125
788.785979035992	5846.966796875
791.483343535914	5826.56689453125
794.179813075812	5779.93310546875
796.875388143434	5728.60009765625
799.570069226218	5742.93310546875
802.263856811291	5792.966796875
804.956751385454	5780.33349609375
807.648753435199	5802.466796875
810.339863446682	5858.966796875
813.030081905767	5870.2001953125
815.719409297987	5868.2666015625
818.407846108563	5883.7998046875
821.0953928224	5862.93310546875
823.782049924091	5841.2333984375
826.467817897908	5786.39990234375
829.152697227802	5737.966796875
831.836688397423	5637.39990234375
834.519791890103	5623.2666015625
837.202008188841	5554.86669921875
839.883337776345	5544.10009765625
842.563781134997	5502.16650390625
845.243338746864	5498.43310546875
847.922011093711	5447.06689453125
850.599798656964	5419.13330078125
853.276701917763	5437.2001953125
855.952721356905	5428.466796875
858.627857454911	5432.36669921875
861.302110691947	5410.60009765625
863.975481547905	5412.966796875
866.64797050233	5391.83349609375
869.319578034484	5389.033203125
871.990304623295	5398.63330078125
874.660150747378	5400.13330078125
877.329116885059	5368.7333984375
879.997203514329	5345.66650390625
882.664411112868	5362.16650390625
885.330740158065	5374.60009765625
887.996191126968	5345
890.660764496346	5345.56689453125
893.32446074263	5340.2998046875
895.987280341944	5321.63330078125
898.649223770116	5355.66650390625
901.310291502651	5330.2998046875
903.970484014752	5347.466796875
906.629801781296	5352.7666015625
909.288245276875	5342.86669921875
911.94581497574	5385
914.602511351862	5385.06689453125
917.258334878881	5423.10009765625
919.913286030143	5470.2666015625
922.567365278671	5543.33349609375
925.22057309719	5675.89990234375
927.872909958113	5875.7001953125
930.524376333534	6302.06689453125
933.174972695261	6772.2333984375
935.824699514769	7420.033203125
938.473557263243	8094.10009765625
941.121546411544	8647.900390625
943.768667430247	9024.8662109375
946.414920789592	9046.3330078125
949.060306959546	8997.2666015625
951.704826409726	8989.533203125
954.348479609485	8956.033203125
956.991267027837	8992.1337890625
959.633189133505	9021
962.274246394901	9070.3662109375
964.914439280131	9045.3330078125
967.553768257001	9117.2666015625
970.192233792994	9181.7001953125
972.829836355309	9251.06640625
975.466576410819	9207.599609375
978.102454426117	9218.1669921875
980.73747086746	9173.2001953125
983.371626200825	9041.3330078125
986.004920891854	8778.8662109375
988.637355405927	8374.5
991.268930208091	7773.33349609375
993.899645763094	7191.033203125
996.529502535374	6733.33349609375
999.158500989077	6349.60009765625
1001.78664158804	6116.83349609375
1004.41392479578	5938.466796875
1007.04035107555	5788.89990234375
1009.66592089027	5657.43310546875
1012.29063470255	5512.7333984375
1014.91449297471	5420.5
1017.53749616879	5304.33349609375
1020.15964474646	5203.10009765625
1022.78093916919	5126.2001953125
1025.40137989804	5018.39990234375
1028.02096739384	4899.533203125
1030.6397021171	4812.36669921875
1033.257584528	4752.7333984375
1035.87461508647	4688.7666015625
1038.49079425209	4630.2333984375
1041.10612248418	4614.13330078125
1043.72060024173	4577.93310546875
1046.33422798343	4553.66650390625
1048.94700616768	4534.2998046875
1051.55893525258	4530.36669921875
1054.17001569593	4494
1056.78024795523	4509.7998046875
1059.38963248767	4491.7333984375
1061.99816975014	4479.33349609375
1064.60586019925	4475.89990234375
1067.21270429129	4499.06689453125
1069.81870248227	4471.36669921875
1072.42385522787	4450.966796875
1075.02816298352	4459.7666015625
1077.6316262043	4455.2001953125
1080.23424534501	4431.966796875
1082.83602086017	4466.43310546875
1085.43695320399	4468.16650390625
1088.03704283036	4452.10009765625
1090.63629019293	4459.16650390625
1093.23469574496	4463.66650390625
1095.83225993951	4465.63330078125
1098.42898322928	4451.7666015625
1101.02486606671	4437.2666015625
1103.6199089039	4452.533203125
1106.2141121927	4450.7001953125
1108.80747638464	4448.533203125
1111.40000193095	4430.39990234375
1113.99168928258	4483.7666015625
1116.58253889016	4438.16650390625
1119.17255120405	4442.33349609375
1121.76172667429	4407.86669921875
1124.35006575066	4438
1126.9375688826	4424.966796875
1129.52423651929	4424.39990234375
1132.11006910959	4418.66650390625
1134.6950671021	4417.06689453125
1137.27923094508	4415.36669921875
1139.86256108653	4401.10009765625
1142.44505797415	4405.63330078125
1145.02672205533	4383.39990234375
1147.60755377718	4398.2998046875
1150.18755358652	4389.7998046875
1152.76672192986	4400.63330078125
1155.34505925343	4417.06689453125
1157.92256600317	4392.39990234375
1160.49924262472	4420.43310546875
1163.07508956343	4411.5
1165.65010726433	4423.83349609375
1168.22429617222	4409.7001953125
1170.79765673155	4406.2333984375
1173.3701893865	4408.16650390625
1175.94189458096	4391
1178.51277275854	4408.89990234375
1181.08282436252	4403.63330078125
1183.65204983592	4401
1186.22044962147	4436.60009765625
1188.7880241616	4427.2001953125
1191.35477389845	4433.39990234375
1193.92069927386	4417.60009765625
1196.4858007294	4414.83349609375
1199.05007870634	4428.16650390625
1201.61353364565	4445.63330078125
1204.17616598803	4450.56689453125
1206.73797617386	4467.66650390625
1209.29896464328	4451.2666015625
1211.85913183609	4461.43310546875
1214.41847819183	4482.60009765625
1216.97700414974	4474.466796875
1219.53471014878	4471.2333984375
1222.09159662761	4467.966796875
1224.64766402461	4477.56689453125
1227.20291277786	4459.5
1229.75734332518	4513.7001953125
1232.31095610407	4501.5
1234.86375155175	4512.7001953125
1237.41573010517	4500.66650390625
1239.96689220099	4512.86669921875
1242.51723827555	4501
1245.06676876494	4523.06689453125
1247.61548410496	4509.63330078125
1250.16338473109	4513.06689453125
1252.71047107857	4518.33349609375
1255.25674358232	4525.7001953125
1257.80220267699	4542.06689453125
1260.34684879693	4540.2666015625
1262.89068237622	4534.43310546875
1265.43370384866	4528.56689453125
1267.97591364773	4537.2666015625
1270.51731220666	4535.5
1273.05789995838	4559.36669921875
1275.59767733554	4553.36669921875
1278.1366447705	4563.13330078125
1280.67480269535	4566.60009765625
1283.21215154188	4561.66650390625
1285.74869174159	4560.93310546875
1288.28442372571	4571.2666015625
1290.8193479252	4585.43310546875
1293.3534647707	4587.83349609375
1295.88677469261	4594.466796875
1298.41927812099	4614.033203125
1300.95097548568	4632.2001953125
1303.48186721619	4613.2666015625
1306.01195374178	4638.5
1308.5412354914	4655.7998046875
1311.06971289374	4646.60009765625
1313.59738637719	4665.2666015625
1316.12425636987	4661.7666015625
1318.65032329961	4661.63330078125
1321.17558759397	4663.16650390625
1323.70004968023	4675.5
1326.22370998537	4688.13330078125
1328.74656893609	4707.7001953125
1331.26862695885	4731.033203125
1333.78988447977	4738.93310546875
1336.31034192473	4734.66650390625
1338.82999971932	4743.39990234375
1341.34885828883	4739.5
1343.86691805832	4739.43310546875
1346.38417945251	4753.7998046875
1348.90064289589	4749.43310546875
1351.41630881263	4778.033203125
1353.93117762666	4798.2001953125
1356.4452497616	4778.966796875
1358.95852564079	4776.39990234375
1361.47100568733	4784.16650390625
1363.982690324	4768.36669921875
1366.49357997333	4789.2666015625
1369.00367505754	4739.466796875
1371.51297599862	4778.7333984375
1374.02148321822	4763.33349609375
1376.52919713777	4747.966796875
1379.03611817839	4730.33349609375
1381.54224676093	4722.60009765625
1384.04758330597	4700.5
1386.55212823381	4696.16650390625
1389.05588196447	4683.533203125
1391.55884491769	4659.33349609375
1394.06101751295	4674.2998046875
1396.56240016941	4649.33349609375
1399.06299330603	4652.33349609375
1401.56279734144	4611.5
1404.06181269398	4582.2666015625
1406.56003978177	4587.7001953125
1409.05747902262	4561.33349609375
1411.55413083404	4552.2666015625
1414.04999563334	4565.533203125
1416.54507383748	4548.56689453125
1419.03936586319	4518.7001953125
1421.5328721269	4522.36669921875
1424.02559304479	4506.466796875
1426.51752903275	4481.63330078125
1429.0086805064	4484.466796875
1431.49904788109	4479.7666015625
1433.98863157188	4462.43310546875
1436.47743199359	4466.36669921875
1438.96544956074	4433.83349609375
1441.45268468757	4444.466796875
1443.93913778808	4445.2998046875
1446.42480927597	4449
1448.90969956468	4421.33349609375
1451.39380906737	4380.86669921875
1453.87713819694	4371.2666015625
1456.35968736602	4367.66650390625
1458.84145698693	4380.7001953125
1461.32244747178	4356.7666015625
1463.80265923236	4325.7333984375
1466.28209268021	4319.43310546875
1468.7607482266	4305.7666015625
1471.23862628251	4306.2333984375
1473.71572725868	4297.89990234375
1476.19205156556	4299.10009765625
1478.66759961333	4306.06689453125
1481.14237181191	4288.36669921875
1483.61636857094	4285.63330078125
1486.08959029979	4263.16650390625
1488.56203740757	4266.5
1491.03371030312	4275.83349609375
1493.504609395	4277.033203125
1495.97473509153	4268.7666015625
1498.4440878007	4286.2001953125
1500.9126679303	4257.89990234375
1503.3804758878	4270.2001953125
1505.84751208046	4265.7001953125
1508.31377691521	4263.5
1510.77927079874	4265.7001953125
1513.24399413748	4268.033203125
1515.70794733758	4282.10009765625
1518.17113080493	4268.39990234375
1520.63354494515	4287.56689453125
1523.09519016358	4297.7666015625
1525.55606686532	4321.466796875
1528.01617545519	4310.7998046875
1530.47551633774	4333.83349609375
1532.93408991725	4328.66650390625
1535.39189659775	4331.966796875
1537.84893678299	4363.16650390625
1540.30521087647	4377.7333984375
1542.7607192814	4382.966796875
1545.21546240076	4429.39990234375
1547.66944063722	4422.7333984375
1550.12265439323	4467.2001953125
1552.57510407094	4475.033203125
1555.02679007225	4501.06689453125
1557.47771279882	4511.2001953125
1559.92787265198	4542.89990234375
1562.37727003288	4581.16650390625
1564.82590534234	4560.66650390625
1567.27377898094	4605.83349609375
1569.72089134901	4636.966796875
1572.16724284659	4654.43310546875
1574.61283387349	4680.466796875
1577.05766482921	4686.2666015625
1579.50173611304	4729.2001953125
1581.94504812397	4751.466796875
1584.38760126074	4757.63330078125
1586.82939592183	4783.16650390625
1589.27043250547	4779.2333984375
1591.71071140959	4795.56689453125
1594.1502330319	4811.966796875
1596.58899776981	4748.466796875
1599.02700602052	4799.86669921875
1601.46425818091	4797.033203125
1603.90075464766	4778.7666015625
1606.33649581713	4771.33349609375
1608.77148208546	4722.36669921875
1611.2057138485	4691.2001953125
1613.63919150188	4670.36669921875
1616.07191544093	4626.7333984375
1618.50388606074	4592.93310546875
1620.93510375615	4535.63330078125
1623.3655689217	4483.86669921875
1625.79528195172	4437.33349609375
1628.22424324025	4381.533203125
1630.65245318109	4333
1633.07991216775	4256.966796875
1635.50662059351	4201.466796875
1637.93257885141	4150
1640.35778733417	4090.16674804688
1642.78224643431	4047.96655273438
1645.20595654406	3995.19995117188
1647.62891805542	3962.30004882813
1650.05113136009	3924.16674804688
1652.47259684955	3858.80004882813
1654.89331491501	3820.93334960938
1657.31328594743	3798.89990234375
1659.73251033749	3768.63330078125
1662.15098847565	3743.63330078125
1664.56872075208	3717.80004882813
1666.98570755671	3698.7666015625
1669.40194927923	3675.93334960938
1671.81744630902	3661.66674804688
1674.23219903527	3655.56665039063
1676.64620784688	3635.86669921875
1679.05947313249	3598.30004882813
1681.47199528049	3600.86669921875
1683.88377467904	3593.33325195313
1686.29481171601	3578.06665039063
1688.70510677902	3567.83325195313
1691.11466025546	3560.13330078125
1693.52347253247	3558.16674804688
1695.93154399686	3544.43334960938
1698.33887503531	3542.33325195313
1700.74546603413	3535.69995117188
1703.15131737945	3547.16674804688
1705.55642945712	3521.2333984375
1707.96080265273	3516.7333984375
1710.36443735164	3521.30004882813
1712.76733393892	3509.80004882813
1715.16949279944	3507.7666015625
1717.57091431778	3495.03344726563
1719.97159887826	3476.56665039063
1722.37154686498	3481.2333984375
1724.77075866177	3467.06665039063
1727.1692346522	3491.53344726563
1729.56697521962	3484.46655273438
1731.96398074709	3450.36669921875
1734.36025161743	3459
1736.75578821323	3464
1739.15059091682	3439.33325195313
1741.54466011027	3452.39990234375
1743.93799617539	3454.53344726563
1746.33059949376	3443.66674804688
1748.72247044671	3424.66674804688
1751.11360941531	3436.30004882813
1753.50401678037	3442.13330078125
1755.89369292247	3428.66674804688
1758.28263822195	3424.7666015625
1760.67085305887	3422.2333984375
1763.05833781306	3410.80004882813
1765.4450928641	3406.63330078125
1767.83111859131	3404.96655273438
1770.21641537377	3411.56665039063
1772.60098359033	3405.06665039063
1774.98482361954	3411.63330078125
1777.36793583978	3390.63330078125
1779.75032062909	3389.06665039063
1782.13197836535	3379.10009765625
1784.51290942612	3392
1786.89311418877	3391.03344726563
1789.27259303038	3371.7333984375
1791.65134632782	3388.36669921875
1794.02937445768	3376.33325195313
1796.40667779632	3375.10009765625
1798.78325671986	3370.83325195313
1801.15911160415	3356.06665039063
1803.53424282482	3354.33325195313
1805.90865075725	3363.03344726563
1808.28233577656	3366.33325195313
1810.65529825763	3344.36669921875
1813.0275385751	3327.2666015625
1815.39905710336	3344.16674804688
1817.76985421656	3360.80004882813
1820.1399302886	3335.06665039063
1822.50928569314	3331.36669921875
1824.8779208036	3340.93334960938
1827.24583599314	3334.96655273438
1829.61303163468	3335.83325195313
1831.97950810092	3342.39990234375
1834.34526576427	3323.16674804688
1836.71030499695	3343.10009765625
1839.0746261709	3333.46655273438
1841.43822965782	3318.43334960938
1843.80111582919	3320.89990234375
1846.16328505622	3310.36669921875
1848.5247377099	3309.43334960938
1850.88547416095	3310.53344726563
1853.24549477987	3304.16674804688
1855.60479993693	3304.66674804688
1857.96339000213	3303
1860.32126534522	3301.69995117188
1862.67842633576	3299.39990234375
1865.03487334299	3297.7666015625
1867.39060673601	3294.13330078125
1869.74562688358	3281.66674804688
1872.09993415429	3288.60009765625
1874.45352891644	3274.7333984375
1876.80641153813	3268.7666015625
1879.15858238719	3276.2333984375
1881.51004183123	3274.80004882813
1883.8607902376	3248.5
1886.21082797343	3261.80004882813
1888.5601554056	3280.30004882813
1890.90877290074	3270.39990234375
1893.25668082527	3246.16674804688
1895.60387954535	3263.86669921875
1897.9503694269	3264.86669921875
1900.29615083561	3254.13330078125
1902.64122413693	3249.7333984375
1904.98558969606	3259.06665039063
1907.32924787797	3240.80004882813
1909.67219904742	3248.69995117188
1912.01444356887	3245.39990234375
1914.3559818066	3229.56665039063
1916.69681412463	3243.2666015625
1919.03694088673	3260.96655273438
1921.37636245645	3247.69995117188
1923.71507919711	3248.03344726563
1926.05309147176	3239.2666015625
1928.39039964327	3249.39990234375
1930.72700407421	3254.63330078125
1933.06290512695	3256.19995117188
1935.39810316362	3260.96655273438
1937.73259854611	3250.83325195313
1940.06639163608	3254.10009765625
1942.39948279493	3238.39990234375
1944.73187238387	3249.86669921875
1947.06356076384	3250.69995117188
1949.39454829555	3252.83325195313
1951.72483533948	3242.83325195313
1954.05442225588	3242.89990234375
1956.38330940476	3248.36669921875
1958.71149714589	3231.36669921875
1961.03898583882	3234.60009765625
1963.36577584285	3226.80004882813
1965.69186751706	3234.16674804688
1968.01726122028	3222.7666015625
1970.34195731113	3228.30004882813
1972.66595614798	3226
1974.98925808898	3214.16674804688
1977.31186349201	3199.56665039063
1979.63377271478	3218.86669921875
1981.95498611472	3202.43334960938
1984.27550404903	3228.7333984375
1986.59532687469	3198.69995117188
1988.91445494847	3211
1991.23288862685	3187.33325195313
1993.55062826614	3214.36669921875
1995.86767422238	3205.03344726563
1998.18402685139	3187.10009765625
2000.49968650876	3203.93334960938
2002.81465354985	3199.16674804688
2005.12892832979	3201.13330078125
2007.44251120347	3194.03344726563
2009.75540252556	3168.93334960938
2012.06760265049	3193.2666015625
2014.37911193249	3194.2666015625
2016.6899307255	3181
2019.0000593833	3176.06665039063
2021.30949825938	3189.83325195313
2023.61824770704	3180.53344726563
2025.92630807934	3180.7666015625
2028.23367972911	3175.36669921875
2030.54036300895	3179.63330078125
2032.84635827122	3179.36669921875
2035.15166586809	3167.7333984375
2037.45628615144	3168
2039.760219473	3183.93334960938
2042.06346618419	3179.06665039063
2044.36602663625	3183.16674804688
2046.66790118021	3179.2333984375
2048.96909016682	3181.56665039063
2051.26959394663	3156.60009765625
2053.56941286997	3183.2333984375
2055.86854728693	3184.10009765625
2058.16699754739	3185.2666015625
2060.46476400098	3178.89990234375
2062.76184699713	3176.43334960938
2065.058246885	3173.63330078125
2067.35396401358	3173.33325195313
2069.64899873161	3170.66674804688
2071.94335138758	3175.7666015625
2074.2370223298	3167.43334960938
2076.53001190631	3180.5
2078.82232046496	3171.13330078125
2081.11394835335	3176.2333984375
2083.40489591888	3170.03344726563
2085.6951635087	3152.66674804688
2087.98475146976	3172.33325195313
2090.27366014875	3165.10009765625
2092.56188989219	3150.7333984375
2094.84944104631	3145.43334960938
2097.13631395718	3159.53344726563
2099.4225089706	3152.66674804688
2101.70802643217	3137.53344726563
2103.99286668728	3145.03344726563
2106.27703008104	3151.30004882813
2108.5605169584	3149.30004882813
2110.84332766406	3150.69995117188
2113.1254625425	3137.2333984375
2115.40692193797	3146.93334960938
2117.68770619451	3132.63330078125
2119.96781565593	3132.63330078125
2122.24725066583	3133.53344726563
2124.52601156757	3134.66674804688
2126.80409870431	3144.80004882813
2129.08151241896	3121.93334960938
2131.35825305425	3121.06665039063
2133.63432095264	3108.2666015625
2135.90971645641	3123
2138.1844399076	3129.30004882813
2140.45849164803	3130.66674804688
2142.73187201931	3119.36669921875
2145.00458136282	3126.10009765625
2147.27662001972	3126.19995117188
2149.54798833095	3138.69995117188
2151.81868663725	3126.93334960938
2154.0887152791	3131.13330078125
2156.3580745968	3121.16674804688
2158.62676493042	3123.7333984375
2160.89478661981	3134.86669921875
2163.16214000458	3121.83325195313
2165.42882542414	3128.66674804688
2167.69484321771	3149.56665039063
2169.96019372424	3139.86669921875
2172.2248772825	3129.13330078125
2174.48889423101	3134.16674804688
2176.7522449081	3127.96655273438
2179.01492965187	3128.43334960938
2181.27694880022	3120.80004882813
2183.53830269079	3143.96655273438
2185.79899166106	3114.69995117188
2188.05901604825	3129.86669921875
2190.31837618938	3117.89990234375
2192.57707242125	3115.2666015625
2194.83510508044	3118.60009765625
2197.09247450333	3115.33325195313
2199.34918102607	3109.80004882813
2201.60522498459	3123.19995117188
2203.86060671463	3088.10009765625
2206.11532655168	3094.89990234375
2208.36938483104	3096.53344726563
2210.62278188778	3108.83325195313
2212.87551805676	3088.7333984375
2215.12759367264	3096.86669921875
2217.37900906984	3094.96655273438
2219.62976458259	3080.80004882813
2221.87986054487	3086
2224.1292972905	3070.83325195313
2226.37807515303	3093.93334960938
2228.62619446583	3085.7666015625
2230.87365556206	3073.69995117188
2233.12045877465	3091.96655273438
2235.36660443631	3087.10009765625
2237.61209287956	3071.5
2239.8569244367	3094.2333984375
2242.10109943981	3070.33325195313
2244.34461822076	3080.80004882813
2246.58748111121	3081
2248.82968844261	3090.7333984375
2251.07124054618	3094.63330078125
2253.31213775297	3081.13330078125
2255.55238039377	3090.60009765625
2257.79196879919	3072.56665039063
2260.03090329962	3083.33325195313
2262.26918422523	3099.13330078125
2264.50681190599	3091.89990234375
2266.74378667167	3076.66674804688
2268.98010885179	3085.80004882813
2271.2157787757	3092.80004882813
2273.45079677254	3082.7666015625
2275.6851631712	3093
2277.9188783004	3088.2666015625
2280.15194248863	3076.7666015625
2282.38435606418	3080.66674804688
2284.61611935512	3077.7333984375
2286.84723268932	3095.13330078125
2289.07769639444	3082.80004882813
2291.30751079794	3077.30004882813
2293.53667622705	3088
2295.76519300879	3086.7666015625
2297.99306147001	3081.46655273438
2300.22028193732	3085.2333984375
2302.44685473711	3068.2333984375
2304.6727801956	3080.63330078125
2306.89805863878	3088.46655273438
2309.12269039242	3068.93334960938
2311.34667578211	3076.16674804688
2313.57001513323	3067.13330078125
2315.79270877092	3086.19995117188
2318.01475702017	3081.7333984375
2320.2361602057	3072.69995117188
2322.45691865206	3082.89990234375
2324.6770326836	3064.86669921875
2326.89650262444	3070.56665039063
2329.11532879851	3064
2331.33351152953	3053.80004882813
2333.55105114102	3066.66674804688
2335.76794795629	3060.69995117188
2337.98420229842	3060.7666015625
2340.19981449035	3069.2333984375
2342.41478485473	3070.80004882813
2344.62911371408	3054.19995117188
2346.84280139066	3066.7666015625
2349.05584820658	3072.86669921875
2351.26825448369	3062.03344726563
2353.48002054368	3064
2355.691146708	3072.2666015625
2357.90163329792	3068.93334960938
2360.11148063452	3067.80004882813
2362.32068903863	3063.80004882813
2364.52925883092	3068.5
2366.73719033183	3075.46655273438
2368.94448386163	3065.33325195313
2371.15113974034	3075.13330078125
2373.35715828782	3058.69995117188
2375.5625398237	3059.56665039063
2377.76728466743	3062.66674804688
2379.97139313824	3054.16674804688
2382.17486555516	3072.7333984375
2384.37770223703	3064.39990234375
2386.57990350247	3065.89990234375
2388.78146966994	3066.16674804688
2390.98240105763	3063.83325195313
2393.18269798359	3071.86669921875
2395.38236076565	3068.13330078125
2397.58138972143	3058.89990234375
2399.77978516836	3075.2666015625
2401.97754742366	3070.66674804688
2404.17467680435	3070.03344726563
2406.37117362728	3057.19995117188
2408.56703820905	3056.93334960938
2410.7622708661	3067.16674804688
2412.95687191466	3066.06665039063
2415.15084167074	3081.30004882813
2417.34418045018	3061.93334960938
2419.53688856861	3060.89990234375
2421.72896634147	3055.5
2423.92041408397	3075.10009765625
2426.11123211117	3052.80004882813
2428.30142073788	3068.80004882813
2430.49098027875	3063.7333984375
2432.67991104822	3065.30004882813
2434.86821336053	3058.06665039063
2437.05588752972	3069.96655273438
2439.24293386965	3061
2441.42935269395	3072.66674804688
2443.61514431608	3046.43334960938
2445.80030904931	3055.10009765625
2447.98484720668	3063.5
2450.16875910105	3061.53344726563
2452.3520450451	3072.13330078125
2454.53470535129	3064.33325195313
2456.7167403319	3059.5
2458.898150299	3053.89990234375
2461.07893556448	3044
2463.25909644001	3058.10009765625
2465.4386332371	3086.96655273438
2467.61754626704	3047.2666015625
2469.79583584091	3052
2471.97350226965	3051.13330078125
2474.15054586395	3048.43334960938
2476.32696693433	3064.13330078125
2478.50276579111	3059.2333984375
2480.67794274441	3052.63330078125
2482.85249810418	3047.10009765625
2485.02643218015	3064.2666015625
2487.19974528187	3067.03344726563
2489.37243771868	3067.13330078125
2491.54450979976	3072.86669921875
2493.71596183406	3052.30004882813
2495.88679413036	3066.56665039063
2498.05700699723	3071.69995117188
2500.22660074307	3061.69995117188
2502.39557567606	3063.33325195313
2504.56393210422	3053.36669921875
2506.73167033534	3054.66674804688
2508.89879067706	3049.46655273438
2511.06529343678	3052.93334960938
2513.23117892175	3060.63330078125
2515.39644743903	3060.30004882813
2517.56109929543	3061.5
2519.72513479764	3042.13330078125
2521.88855425212	3049.56665039063
2524.05135796515	3061.60009765625
2526.21354624281	3051.83325195313
2528.37511939102	3049.60009765625
2530.53607771546	3065.86669921875
2532.69642152166	3046.7666015625
2534.85615111494	3060.93334960938
2537.01526680044	3051.60009765625
2539.17376888311	3041.03344726563
2541.3316576677	3061.39990234375
2543.48893345878	3054.33325195313
2545.64559656073	3058.69995117188
2547.80164727774	3058.39990234375
2549.95708591381	3071.5
2552.11191277276	3057.39990234375
2554.2661281582	3037.63330078125
2556.41973237357	3046.83325195313
2558.57272572212	3049.13330078125
2560.72510850691	3068.2333984375
2562.8768810308	3069
2565.02804359649	3051.43334960938
2567.17859650646	3063.19995117188
2569.32854006303	3064.83325195313
2571.47787456831	3054.66674804688
2573.62660032425	3057.30004882813
2575.77471763258	3072.06665039063
2577.92222679487	3075.83325195313
2580.0691281125	3061.80004882813
2582.21542188663	3079.83325195313
2584.3611084183	3068.7666015625
2586.5061880083	3073.33325195313
2588.65066095727	3074.36669921875
2590.79452756565	3070.63330078125
2592.9377881337	3090.10009765625
2595.08044296149	3066.86669921875
2597.22249234891	3085.2333984375
2599.36393659566	3053.86669921875
2601.50477600126	3066.39990234375
2603.64501086504	3069.93334960938
2605.78464148615	3065.56665039063
2607.92366816356	3073.19995117188
2610.06209119605	3073.66674804688
2612.1999108822	3071.86669921875
2614.33712752044	3064.63330078125
2616.47374140899	3070.19995117188
2618.60975284589	3076.56665039063
2620.74516212901	3061.46655273438
2622.87996955602	3066.56665039063
2625.01417542443	3080.16674804688
2627.14778003154	3075.86669921875
2629.28078367448	3057.39990234375
2631.41318665019	3067.69995117188
2633.54498925545	3073.33325195313
2635.67619178683	3076.7333984375
2637.80679454074	3076.53344726563
2639.93679781339	3064.33325195313
2642.06620190081	3053.89990234375
2644.19500709887	3083.16674804688
2646.32321370324	3078.36669921875
2648.4508220094	3075.06665039063
2650.57783231268	3072.30004882813
2652.7042449082	3085.33325195313
2654.8300600909	3082.53344726563
2656.95527815557	3068.89990234375
2659.07989939677	3080.16674804688
2661.20392410894	3074.66674804688
2663.32735258629	3088.03344726563
2665.45018512287	3074.96655273438
2667.57242201254	3109.5
2669.69406354901	3076.03344726563
2671.81511002577	3090.60009765625
2673.93556173616	3089.53344726563
2676.05541897333	3085.60009765625
2678.17468203024	3090.03344726563
2680.2933511997	3082.19995117188
2682.41142677431	3087.93334960938
2684.52890904651	3068.93334960938
2686.64579830858	3078.06665039063
2688.76209485256	3082.93334960938
2690.87779897038	3102.7333984375
2692.99291095376	3092.83325195313
2695.10743109424	3097.86669921875
2697.22135968318	3094.86669921875
2699.33469701179	3084.13330078125
2701.44744337108	3105.5
2703.55959905187	3080.06665039063
2705.67116434485	3083.83325195313
2707.78213954048	3102.63330078125
2709.89252492907	3106.56665039063
2712.00232080076	3074.19995117188
2714.1115274455	3074.2666015625
2716.22014515307	3084.53344726563
2718.32817421306	3075.2666015625
2720.43561491492	3084.03344726563
2722.54246754789	3069
2724.64873240104	3085.30004882813
2726.75440976329	3077.96655273438
2728.85949992335	3085.39990234375
2730.96400316978	3069
2733.06791979094	3064.03344726563
2735.17125007505	3080.19995117188
2737.27399431013	3088.06665039063
2739.37615278404	3070.46655273438
2741.47772578445	3085.43334960938
2743.57871359887	3093.7333984375
2745.67911651463	3068.86669921875
2747.7789348189	3074.30004882813
2749.87816879864	3088.53344726563
2751.97681874068	3077.36669921875
2754.07488493166	3078.53344726563
2756.17236765804	3089.93334960938
2758.26926720611	3089.2666015625
2760.36558386199	3091.03344726563
2762.46131791164	3070.10009765625
2764.55646964082	3082.13330078125
2766.65103933514	3068.5
2768.74502728003	3075.13330078125
2770.83843376075	3061.06665039063
2772.93125906238	3073.56665039063
2775.02350346986	3066.46655273438
2777.11516726792	3058.56665039063
2779.20625074112	3071.7666015625
2781.29675417389	3079.43334960938
2783.38667785045	3066.86669921875
2785.47602205485	3068.56665039063
2787.564787071	3063.5
2789.65297318262	3082.96655273438
2791.74058067325	3058.69995117188
2793.82760982627	3072.03344726563
2795.9140609249	3081.2333984375
2797.99993425218	3074.16674804688
2800.08523009097	3077.30004882813
2802.16994872399	3073.96655273438
2804.25409043376	3068.43334960938
2806.33765550265	3062.2666015625
2808.42064421285	3069.46655273438
2810.5030568464	3073.66674804688
2812.58489368514	3071.2666015625
2814.66615501076	3070.5
2816.7468411048	3078.30004882813
2818.8269522486	3069.60009765625
2820.90648872334	3076.06665039063
2822.98545081005	3077.7666015625
2825.06383878958	3067.10009765625
2827.1416529426	3072.2666015625
2829.21889354963	3059.69995117188
2831.29556089103	3071.46655273438
2833.37165524697	3059.2666015625
2835.44717689746	3062.83325195313
2837.52212612235	3078.56665039063
2839.59650320133	3070.33325195313
2841.67030841392	3049.80004882813
2843.74354203945	3056.93334960938
2845.81620435711	3074.10009765625
2847.88829564593	3046.33325195313
2849.95981618474	3056.60009765625
2852.03076625224	3057.63330078125
2854.10114612695	3062.5
2856.17095608722	3062.43334960938
2858.24019641124	3062.43334960938
2860.30886737704	3044.83325195313
2862.37696926247	3058.06665039063
2864.44450234525	3054.06665039063
2866.51146690289	3064.33325195313
2868.57786321276	3059.7333984375
2870.64369155207	3040.63330078125
2872.70895219786	3042.69995117188
2874.77364542701	3053.56665039063
2876.83777151622	3058.80004882813
2878.90133074205	3047.03344726563
2880.96432338087	3058.06665039063
2883.02674970892	3060.10009765625
2885.08861000225	3043.36669921875
2887.14990453676	3049.36669921875
2889.21063358818	3043.19995117188
2891.27079743209	3042.83325195313
2893.33039634389	3039.2666015625
2895.38943059883	3061.7333984375
2897.447900472	3043.7666015625
2899.50580623832	3045.33325195313
2901.56314817254	3059.5
2903.61992654928	3048.30004882813
2905.67614164298	3043.53344726563
2907.73179372789	3049.89990234375
2909.78688307816	3042.19995117188
2911.84140996772	3046.7333984375
2913.89537467038	3046.03344726563
2915.94877745976	3045.96655273438
2918.00161860935	3049.7666015625
2920.05389839246	3044.69995117188
2922.10561708223	3048.2333984375
2924.15677495167	3053.89990234375
2926.20737227361	3057.2333984375
2928.25740932072	3036.86669921875
2930.30688636552	3042.10009765625
2932.35580368036	3034.5
2934.40416153743	3038.2333984375
2936.45196020879	3033.56665039063
2938.49919996629	3027.69995117188
2940.54588108167	3037.7333984375
2942.59200382649	3028.10009765625
2944.63756847214	3037.60009765625
2946.68257528988	3031.36669921875
2948.72702455079	3028.96655273438
2950.7709165258	3019.80004882813
2952.81425148567	3016.03344726563
2954.85702970103	3027.86669921875
2956.89925144233	3020.89990234375
2958.94091697988	3022.39990234375
2960.9820265838	3020.60009765625
2963.02258052408	3023.43334960938
2965.06257907056	3012.83325195313
2967.1020224929	3020.19995117188
2969.14091106062	3020.80004882813
2971.17924504309	3020.2666015625
2973.21702470949	3016.56665039063
2975.25425032888	3014.96655273438
2977.29092217015	3023.5
2979.32704050203	2996.69995117188
2981.36260559311	2999.5
2983.3976177118	3004.63330078125
2985.43207712638	2999.16674804688
2987.46598410496	3007.43334960938
2989.4993389155	3012.13330078125
2991.5321418258	3007.16674804688
2993.56439310352	3007.33325195313
2995.59609301614	3017.2333984375
2997.62724183102	3002.19995117188
2999.65783981532	3021.43334960938
3001.6878872361	3007.69995117188
3003.71738436023	3006.13330078125
3005.74633145443	3015.13330078125
3007.77472878527	3002.03344726563
3009.80257661918	2995.63330078125
3011.82987522242	2988.2333984375
3013.85662486111	2986.19995117188
3015.88282580119	2993.39990234375
3017.90847830848	2979.96655273438
3019.93358264864	2989.93334960938
3021.95813908716	3005.63330078125
3023.9821478894	2994.03344726563
3026.00560932055	2984.10009765625
3028.02852364566	2984.7333984375
3030.05089112962	2981
3032.07271203718	2976.86669921875
3034.09398663292	2985.96655273438
3036.11471518128	2974.60009765625
3038.13489794656	2983.5
3040.15453519289	2975
3042.17362718426	2968.5
3044.1921741845	2980.86669921875
3046.2101764573	2975.10009765625
3048.22763426619	2963.53344726563
3050.24454787457	2970.69995117188
3052.26091754566	2980.5
3054.27674354254	2966.60009765625
3056.29202612816	2963.19995117188
3058.3067655653	2964.83325195313
3060.32096211659	2958.46655273438
3062.33461604452	2966.06665039063
3064.34772761144	2963.69995117188
3066.36029707952	2963.19995117188
3068.37232471081	2977.46655273438
3070.3838107672	2977.30004882813
3072.39475551043	2963.16674804688
3074.40515920209	2956.96655273438
3076.41502210364	2966.56665039063
3078.42434447637	2967.96655273438
3080.43312658143	2952.39990234375
3082.44136867982	2969.16674804688
3084.44907103239	2976
3086.45623389987	2963.5
3088.4628575428	2950.5
3090.4689422216	2968.39990234375
3092.47448819653	2952.19995117188
3094.47949572772	2969.60009765625
3096.48396507513	2952.19995117188
3098.48789649859	2963.10009765625
3100.49129025779	2965.60009765625
3102.49414661225	2961.69995117188
3104.49646582136	2951.43334960938
3106.49824814437	2957.69995117188
3108.49949384037	2961
3110.50020316831	2947.16674804688
3112.500376387	2934.2666015625
3114.50001375509	2926.5
3116.4991155311	2937.7333984375
3118.4976819734	2926.10009765625
3120.49571334021	2933.06665039063
3122.49320988962	2951.63330078125
3124.49017187955	2944.56665039063
3126.48659956781	2935.86669921875
3128.48249321203	2942.7333984375
3130.47785306973	2927.96655273438
3132.47267939825	2938.5
3134.46697245482	2929.06665039063
3136.46073249651	2912.66674804688
3138.45395978023	2924.53344726563
3140.44665456279	2930.03344726563
3142.43881710082	2928.19995117188
3144.43044765083	2923.83325195313
3146.42154646916	2921.39990234375
3148.41211381202	2909.19995117188
3150.4021499355	2917.89990234375
3152.39165509552	2921.7333984375
3154.38062954786	2912.89990234375
3156.36907354817	2918.30004882813
3158.35698735195	2921.2333984375
3160.34437121457	2930.63330078125
3162.33122539124	2914.69995117188
3164.31755013704	2917.39990234375
3166.3033457069	2920.10009765625
3168.28861235562	2917.80004882813
3170.27335033786	2911.83325195313
3172.25755990813	2907.33325195313
3174.2412413208	2913.7666015625
3176.22439483009	2906.46655273438
3178.20702069011	2906.96655273438
3180.18911915481	2913.60009765625
3182.17069047799	2898.30004882813
3184.15173491334	2911.56665039063
3186.13225271437	2903.03344726563
3188.11224413448	2915.43334960938
3190.09170942692	2907.80004882813
3192.07064884482	2899.13330078125
3194.04906264114	2900.7333984375
3196.02695106871	2894
3198.00431438023	2889.46655273438
3199.98115282827	2883.89990234375
3201.95746666524	2890.2333984375
3203.93325614341	2880.96655273438
3205.90852151494	2891.2333984375
3207.88326303182	2885.36669921875
3209.85748094592	2872.60009765625
3211.83117550897	2881
3213.80434697256	2867.46655273438
3215.77699558815	2882.06665039063
3217.74912160705	2862.7333984375
3219.72072528044	2879.7666015625
3221.69180685935	2870.86669921875
3223.6623665947	2861.60009765625
3225.63240473726	2873.30004882813
3227.60192153764	2875.63330078125
3229.57091724636	2869.60009765625
3231.53939211376	2870.60009765625
3233.50734639007	2861.46655273438
3235.47478032538	2866.43334960938
3237.44169416964	2852.7666015625
3239.40808817265	2857.10009765625
3241.3739625841	2865.80004882813
3243.33931765354	2872.30004882813
3245.30415363038	2856.06665039063
3247.26847076388	2851.13330078125
3249.23226930318	2858.43334960938
3251.1955494973	2860.80004882813
3253.15831159509	2859.7333984375
3255.1205558453	2856.63330078125
3257.08228249652	2853.60009765625
3259.04349179722	2841.83325195313
3261.00418399574	2843.46655273438
3262.96435934026	2843.5
3264.92401807885	2863.5
3266.88316045946	2855.83325195313
3268.84178672986	2850.69995117188
3270.79989713773	2853.13330078125
3272.7574919306	2839.39990234375
3274.71457135587	2853.80004882813
3276.6711356608	2851.66674804688
3278.62718509252	2830.13330078125
3280.58271989803	2852.7666015625
3282.53774032421	2843.19995117188
3284.49224661778	2850.43334960938
3286.44623902535	2848.06665039063
3288.39971779339	2839.30004882813
3290.35268316824	2826.89990234375
3292.30513539611	2838.13330078125
3294.25707472307	2832.03344726563
3296.20850139507	2834.03344726563
3298.15941565793	2826.30004882813
3300.10981775731	2826.2666015625
3302.05970793879	2821.83325195313
3304.00908644778	2829.33325195313
3305.95795352955	2814.2666015625
3307.9063094293	2817.93334960938
3309.85415439202	2820.43334960938
3311.80148866264	2816.46655273438
3313.74831248591	2807.96655273438
3315.69462610647	2821.60009765625
3317.64042976884	2820.19995117188
3319.58572371739	2810.66674804688
3321.53050819639	2807.03344726563
3323.47478344994	2809.39990234375
3325.41854972204	2814.46655273438
3327.36180725656	2803
3329.30455629722	2822.60009765625
3331.24679708763	2802.89990234375
3333.18852987128	2800.63330078125
3335.12975489151	2804.30004882813
3337.07047239154	2813.39990234375
3339.01068261447	2802.2666015625
3340.95038580325	2807.2666015625
3342.88958220072	2800.5
3344.82827204961	2805.63330078125
3346.76645559248	2804.80004882813
3348.70413307179	2802.83325195313
3350.64130472987	2802.19995117188
3352.57797080891	2806.36669921875
3354.51413155099	2800.2333984375
3356.44978719807	2788.63330078125
3358.38493799195	2811.89990234375
3360.31958417434	2794.30004882813
3362.25372598679	2790.86669921875
3364.18736367075	2791.56665039063
3366.12049746753	2793.7666015625
3368.05312761833	2800.66674804688
3369.9852543642	2780.7666015625
3371.91687794609	2795.46655273438
3373.8479986048	2780.03344726563
3375.77861658103	2793.13330078125
3377.70873211532	2788.39990234375
3379.63834544813	2781
3381.56745681977	2790.16674804688
3383.49606647041	2767
3385.42417464013	2776.2666015625
3387.35178156885	2776.13330078125
3389.27888749641	2778.36669921875
3391.20549266247	2776.86669921875
3393.13159730662	2769.56665039063
3395.05720166829	2791.60009765625
3396.9823059868	2772.86669921875
3398.90691050135	2773.93334960938
3400.83101545101	2763.33325195313
3402.75462107473	2761.33325195313
3404.67772761132	2768.30004882813
3406.60033529949	2761.60009765625
3408.52244437783	2771.5
3410.44405508479	2766.56665039063
3412.3651676587	2756.7333984375
3414.28578233777	2758
3416.2058993601	2757.7333984375
3418.12551896366	2763.43334960938
3420.04464138627	2750.93334960938
3421.96326686569	2761.83325195313
3423.88139563949	2745.2666015625
3425.79902794517	2765.16674804688
3427.71616402009	2766.60009765625
3429.63280410148	2761.2333984375
3431.54894842645	2758.33325195313
3433.464597232	2760.19995117188
3435.37975075503	2755.2666015625
3437.29440923226	2763.10009765625
3439.20857290035	2770.2333984375
3441.12224199579	2760.46655273438
3443.035416755	2757.63330078125
3444.94809741424	2768.03344726563
3446.86028420966	2772.66674804688
3448.7719773773	2754.5
3450.68317715308	2776.5
3452.59388377278	2751.60009765625
3454.50409747209	2753.7666015625
3456.41381848656	2770.16674804688
3458.32304705162	2745.60009765625
3460.2317834026	2762.33325195313
3462.1400277747	2755
3464.047780403	2760.5
3465.95504152246	2764.66674804688
3467.86181136793	2772.56665039063
3469.76809017412	2753.10009765625
3471.67387817566	2773.60009765625
3473.57917560703	2757.06665039063
3475.4839827026	2744.2333984375
3477.38829969664	2754.46655273438
3479.29212682326	2750.89990234375
3481.19546431651	2745.2666015625
3483.09831241027	2748.16674804688
3485.00067133835	2760.53344726563
3486.9025413344	2736.80004882813
3488.80392263197	2739.03344726563
3490.70481546451	2737.43334960938
3492.60522006534	2736.36669921875
3494.50513666765	2743.06665039063
3496.40456550454	2737.30004882813
3498.30350680898	2735.13330078125
3500.20196081382	2744.56665039063
3502.0999277518	2743.93334960938
3503.99740785554	2728.60009765625
3505.89440135756	2728.06665039063
3507.79090849025	2727.36669921875
3509.68692948589	2728.10009765625
3511.58246457663	2728.39990234375
3513.47751399454	2728.03344726563
3515.37207797153	2719.93334960938
3517.26615673944	2723
3519.15975052996	2724.2333984375
3521.05285957469	2712.19995117188
3522.9454841051	2729.66674804688
3524.83762435255	2722.83325195313
3526.7292805483	2717.53344726563
3528.62045292348	2720.69995117188
3530.5111417091	2708.2333984375
3532.40134713609	2702.36669921875
3534.29106943522	2725.83325195313
3536.18030883718	2707.2666015625
3538.06906557255	2720.16674804688
3539.95733987177	2708.80004882813
3541.84513196519	2728.69995117188
3543.73244208305	2716.93334960938
3545.61927045544	2697.46655273438
3547.5056173124	2709.96655273438
3549.39148288379	2709.2333984375
3551.27686739942	2702.33325195313
3553.16177108894	2719.89990234375
3555.04619418191	2724.86669921875
3556.93013690779	2714.63330078125
3558.8135994959	2716.89990234375
3560.69658217547	2712.53344726563
3562.57908517561	2725.56665039063
3564.46110872532	2716.69995117188
3566.3426530535	2718.7666015625
3568.22371838891	2727
3570.10430496024	2729.80004882813
3571.98441299604	2726.46655273438
3573.86404272476	2724.06665039063
3575.74319437474	2730.06665039063
3577.62186817419	2721.66674804688
3579.50006435126	2726.93334960938
3581.37778313393	2725.19995117188
3583.25502475011	2710.96655273438
3585.1317894276	2701.80004882813
3587.00807739406	2716.16674804688
3588.88388887708	2709.39990234375
3590.7592241041	2708.89990234375
3592.6340833025	2696.69995117188
3594.50846669951	2706.19995117188
3596.38237452226	2710.7333984375
3598.25580699778	2712.39990234375
3600.128764353	2705.7333984375
3602.00124681473	2704.63330078125
3603.87325460965	2699
3605.74478796438	2707.2333984375
3607.6158471054	2699.43334960938
3609.48643225908	2706.83325195313
3611.35654365171	2713.80004882813
3613.22618150943	2694.2333984375
3615.09534605832	2699.06665039063
3616.96403752432	2699.93334960938
3618.83225613328	2705.06665039063
3620.70000211093	2698.63330078125
3622.56727568289	2695.56665039063
3624.43407707471	2701.16674804688
3626.30040651178	2691.2333984375
3628.16626421943	2689.39990234375
3630.03165042286	2687.7333984375
3631.89656534716	2701.60009765625
3633.76100921734	2695.19995117188
3635.62498225827	2692.46655273438
3637.48848469475	2699.33325195313
3639.35151675143	2689.7333984375
3641.21407865291	2699.83325195313
3643.07617062364	2689.39990234375
3644.93779288798	2683.7333984375
3646.7989456702	2697.7333984375
3648.65962919443	2689.36669921875
3650.51984368473	2689.96655273438
3652.37958936505	2689.13330078125
3654.23886645922	2694.66674804688
3656.09767519098	2702.80004882813
3657.95601578395	2704.33325195313
3659.81388846166	2695.2333984375
3661.67129344754	2704.83325195313
3663.5282309649	2696.2666015625
3665.38470123697	2696.13330078125
3667.24070448684	2687.13330078125
3669.09624093753	2688.56665039063
3670.95131081196	2692.33325195313
3672.80591433291	2681.86669921875
3674.6600517231	2699.89990234375
3676.51372320512	2689.16674804688
3678.36692900147	2679.16674804688
3680.21966933453	2697.89990234375
3682.07194442661	2693.56665039063
3683.92375449988	2682.69995117188
3685.77509977644	2680.03344726563
3687.62598047828	2679.83325195313
3689.47639682727	2665.7333984375
3691.3263490452	2681.80004882813
3693.17583735375	2691.06665039063
3695.02486197449	2677.33325195313
