-45.2401887661565	1572.66662597656
-42.2571416371046	1572.66662597656
-39.2751473659741	1572.19995117188
-36.294205364348	1573
-33.3143150441689	1572.23327636719
-30.3354758177508	1572.59997558594
-27.3576870977546	1574.16662597656
-24.3809482972486	1573.09997558594
-21.4052588296189	1574.53332519531
-18.4306181086421	1573.33337402344
-15.4570255484567	1574.73327636719
-12.484480563567	1575.26672363281
-9.51298256884248	1577.09997558594
-6.54253097950557	1591.06665039063
-3.57312521115564	1715.26672363281
-0.604764679752472	2152.83325195313
2.36255119837996	2428.7333984375
5.32882300654979	1989.66662597656
8.29405132772162	1649.36669921875
11.2582367444606	1582.40002441406
14.221379838993	1577.83337402344
17.1834811931863	1576.66662597656
20.1445413885255	1576.33337402344
23.1045610061495	1576.19995117188
26.0635406268193	1576.5
29.0214808309505	1575.63330078125
31.9783821985772	1576.19995117188
34.9342453093885	1578.16662597656
37.889070742705	1577.30004882813
40.8428590774668	1577.59997558594
43.7956108922979	1576.59997558594
46.7473267654063	1581.03332519531
49.6980072746767	1581.69995117188
52.6476529976064	1588.36669921875
55.5962645113619	1610.46667480469
58.5438423927148	1684.96667480469
61.4903872181026	1905.93334960938
64.4358995635843	2427.2333984375
67.3803800048697	3443.60009765625
70.3238291172945	5081.2666015625
73.2662474758495	7509.2333984375
76.2076356551565	10806.8330078125
79.1479942294767	14440.6669921875
82.087323772719	17365.099609375
85.025624858416	18951.19921875
87.9628980597688	19308.732421875
90.8991439495829	19325.166015625
93.8343631003365	19396.267578125
96.7685560841253	19583.099609375
99.7017234727059	19689.56640625
102.633865837465	19634.732421875
105.564983749419	19299.166015625
108.49507777925	19046.80078125
111.424148497276	18683.8671875
114.352196473425	18385.93359375
117.27922227732	18263.599609375
120.205226478184	18091.666015625
123.130209644899	18024.666015625
126.054172346	17881.5
128.977115149633	17728.599609375
131.899038623609	17605.30078125
134.819943335381	17500.5
137.73982985205	17376.30078125
140.658698740338	17201.767578125
143.576550566638	17060.1328125
146.49338589696	16928.533203125
149.409205296978	16767.30078125
152.324009332002	16636.1328125
155.237798566978	16397.69921875
158.150573566513	16261.599609375
161.06233489485	16034.3662109375
163.973083115868	15769.8662109375
166.882818793097	15540.900390625
169.791542489729	15371.533203125
172.699254768567	15223.099609375
175.60595619209	15133.06640625
178.5116473224	15065.3662109375
181.416328721259	14957.93359375
184.320000950057	14802.3662109375
187.222664569858	14767.43359375
190.124320141336	14698.56640625
193.024968224852	14588.033203125
195.924609380368	14534.7001953125
198.823244167539	14421.6669921875
201.720873145623	14378.93359375
204.617496873556	14317.43359375
207.513115909906	14328.7666015625
210.407730812889	14284.6669921875
213.301342140378	14326.06640625
216.19395044987	14401.966796875
219.085556298543	14498.1669921875
221.976160243188	14658.7333984375
224.865762840274	14989.466796875
227.754364645889	15436.2666015625
230.641966215796	15628.7333984375
233.528568105389	15606.5
236.414170869724	15514.43359375
239.298775063472	15418.966796875
242.182381241009	15310.3662109375
245.064989956303	15217.2333984375
247.946601763011	15171.2001953125
250.827217214431	15141.7001953125
253.706836863485	15101.2333984375
256.585461262776	15099.7333984375
259.463090964538	15038.43359375
262.339726520655	15078.2666015625
265.215368482684	15029.533203125
268.090017401811	15080.7998046875
270.963673828854	15091.2998046875
273.83633831433	15112.1337890625
276.708011408363	15210.6337890625
279.578693660757	15279.099609375
282.448385620947	15422.2998046875
285.317087838035	15586.533203125
288.184800860754	15755.033203125
291.051525237502	16039.2333984375
293.91726151634	16276.5
296.782010244956	16680.033203125
299.645771970707	17392.833984375
302.508547240595	18069.19921875
305.370336601275	18145.400390625
308.231140599056	17512.966796875
311.090959779906	16612
313.949794689425	15947.1669921875
316.807645872888	15504.466796875
319.664513875216	15143.2001953125
322.520399240978	14764.7001953125
325.375302514399	14540.93359375
328.229224239362	14242.2333984375
331.082164959406	14019.3330078125
333.934125217701	13830.1337890625
336.785105557106	13648.533203125
339.63510652011	13462.43359375
342.484128648865	13271.8330078125
345.332172485161	13101.2998046875
348.179238570481	12961.599609375
351.025327445927	12802.43359375
353.870439652258	12677.533203125
356.714575729916	12601.033203125
359.557736218976	12545.5
362.399921659154	12478.2001953125
365.241132589866	12488.1337890625
368.081369550147	12512.3330078125
370.9206330787	12680.966796875
373.758923713884	12990
376.596241993719	13746.400390625
379.432588455865	15394
382.267963637662	17263.900390625
385.102368076089	16630.267578125
387.935802307795	13943.466796875
390.76826686907	12173.93359375
393.599762295869	11673.3330078125
396.430289123809	11895.7666015625
399.259847888169	13214.033203125
402.088439123881	16179.8330078125
404.916063365514	19450.1328125
407.742721147318	19432.1328125
410.568413003215	16217.7001953125
413.393139466752	13285.6669921875
416.216901071157	11810.2333984375
419.039698349307	11067.966796875
421.861531833736	10599.93359375
424.682402056651	10326.2666015625
427.502309549909	10210.2001953125
430.321254845016	10138.5
433.139238473162	10077.533203125
435.956260965177	9957.1669921875
438.77232285156	9760.7001953125
441.587424662468	9429.8330078125
444.401566927712	9255.3662109375
447.214750176775	9054.2998046875
450.026974938794	8886.2001953125
452.83824174257	8634.8662109375
455.648551116567	8379.400390625
458.457903588894	8017.2001953125
461.26629968734	7797.2666015625
464.073739939357	7643.39990234375
466.880224872035	7538.2001953125
469.685755012153	7430.7001953125
472.49033088614	7261.7001953125
475.293953020089	7152.66650390625
478.096621939743	7179
480.898338170538	7208.60009765625
483.699102237533	7357.2333984375
486.498914665491	7593.33349609375
489.297775978795	8002.60009765625
492.095686701534	8487.8330078125
494.892647357429	9203.1669921875
497.688658469877	10328.2333984375
500.483720561944	12194.3662109375
503.277834156342	15421.3662109375
506.070999775463	20990.466796875
508.863217941361	31129.400390625
511.654489175756	49875.33203125
514.444814000016	64537.33203125
517.2341929352	64542.3671875
520.022626502005	64533.8671875
522.810115220818	64496.6015625
525.596659611673	64450.46484375
528.382260194271	64412.33203125
531.166917487996	64388.765625
533.950632011879	58414.56640625
536.73340428462	47937.53515625
539.515234824599	40720.6015625
542.296124149831	35532.265625
545.076072778037	31669.19921875
547.855081226582	28722.69921875
550.633150012498	26320.30078125
553.410279652488	24332.333984375
556.186470662915	22852.267578125
558.96172355983	21534.666015625
561.736038858928	20333.69921875
564.509417075582	19366.5
567.281858724831	18634.19921875
570.05336432138	17904.533203125
572.823934379622	17197.400390625
575.593569413579	16560.599609375
578.362269936978	16075.3330078125
581.130036463186	15562.533203125
583.896869505276	15228.7001953125
586.662769575936	14856.7998046875
589.427737187587	14638.7998046875
592.191772852261	14376.93359375
594.954877081707	14158.400390625
597.717050387307	14017.466796875
600.478293280132	13777.93359375
603.238606270918	13588.3662109375
605.997989870071	13505.900390625
608.756444587674	13514.06640625
611.51397093347	13938.8662109375
614.270569416885	14694
617.026240546994	15531.7666015625
619.780984832579	15828.400390625
622.534802782051	15425.7666015625
625.28769490353	14846.2666015625
628.039661704777	14235.7001953125
630.790703693254	13714.966796875
633.540821376072	13440.3330078125
636.290015260021	13405.1669921875
639.038285851557	13376.2333984375
641.785633656838	13192.8330078125
644.53205918164	13002.3662109375
647.277562931475	12719.8662109375
650.022145411487	12488.3330078125
652.765807126504	12256.06640625
655.508548581018	12126.2666015625
658.250370279212	12049.06640625
660.991272724927	11947.93359375
663.731256421695	11889.466796875
666.470321872704	11855.033203125
669.208469580824	11795.900390625
671.945700048608	11800.1337890625
674.682013778259	11676.7666015625
677.417411271689	11536.533203125
680.151893030452	11381.7666015625
682.885459555808	11191.8662109375
685.618111348654	11047.8330078125
688.349848909595	10910.099609375
691.080672738909	10745.43359375
693.810583336532	10597
696.539581202094	10501.7001953125
699.267666834878	10362.56640625
701.994840733876	10285.6337890625
704.721103397717	10162.2998046875
707.446455324753	10025.6669921875
710.17089701297	9991.1337890625
712.894428960055	9875.8662109375
715.617051663367	9794.599609375
718.338765619947	9738.2333984375
721.059571326491	9735.56640625
723.77946927941	9671.8662109375
726.498459974761	9656.7001953125
729.216543908288	9556.43359375
731.933721575429	9548.06640625
734.649993471274	9556.400390625
737.365360090615	9530.7666015625
740.079821927902	9536.533203125
742.793379477287	9512.466796875
745.506033232575	9520.8662109375
748.217783687274	9514.2333984375
750.928631334558	9482.7998046875
753.638576667294	9491.8662109375
756.347620177996	9479.1337890625
759.055762358899	9406.1337890625
761.763003701896	9418.3330078125
764.469344698568	9359.2333984375
767.174785840164	9303.3662109375
769.879327617621	9303.5
772.582970521569	9326.8662109375
775.285715042305	9347.56640625
777.98756166981	9355.2666015625
780.688510893745	9385.56640625
783.388563203461	9395.8330078125
786.087719087968	9399.966796875
788.785979035992	9330.2001953125
791.483343535914	9330.2333984375
794.179813075812	9284.2666015625
796.875388143434	9262.2998046875
799.570069226218	9275.3330078125
802.263856811291	9304.6337890625
804.956751385454	9310.966796875
807.648753435199	9373.599609375
810.339863446682	9411.7333984375
813.030081905767	9451.966796875
815.719409297987	9440.3662109375
818.407846108563	9467.06640625
821.0953928224	9472
823.782049924091	9439.2001953125
826.467817897908	9358.900390625
829.152697227802	9309.7001953125
831.836688397423	9252.1337890625
834.519791890103	9174.6337890625
837.202008188841	9088.2333984375
839.883337776345	8985.8662109375
842.563781134997	8896.56640625
845.243338746864	8899.43359375
847.922011093711	8817.2333984375
850.599798656964	8775.400390625
853.276701917763	8779.966796875
855.952721356905	8768.7333984375
858.627857454911	8772.7333984375
861.302110691947	8744.400390625
863.975481547905	8731.400390625
866.64797050233	8765.7001953125
869.319578034484	8726.8330078125
871.990304623295	8748.2001953125
874.660150747378	8726.533203125
877.329116885059	8716.7001953125
879.997203514329	8695.2666015625
882.664411112868	8682.1669921875
885.330740158065	8637
887.996191126968	8655.033203125
890.660764496346	8648.7998046875
893.32446074263	8658.400390625
895.987280341944	8663.033203125
898.649223770116	8641.599609375
901.310291502651	8638.43359375
903.970484014752	8652.7998046875
906.629801781296	8631.56640625
909.288245276875	8662.6337890625
911.94581497574	8667.06640625
914.602511351862	8761.8662109375
917.258334878881	8832.466796875
919.913286030143	8978.7001953125
922.567365278671	9207.400390625
925.22057309719	9473.466796875
927.872909958113	10147.2998046875
930.524376333534	11178.533203125
933.174972695261	12553.7333984375
935.824699514769	14115.900390625
938.473557263243	15737
941.121546411544	17225
943.768667430247	18076.3671875
946.414920789592	18152.466796875
949.060306959546	18028
951.704826409726	17860.93359375
954.348479609485	17922.732421875
956.991267027837	17983.6328125
959.633189133505	18049.06640625
962.274246394901	18136.900390625
964.914439280131	18212.767578125
967.553768257001	18294.333984375
970.192233792994	18424.466796875
972.829836355309	18477.56640625
975.466576410819	18525.466796875
978.102454426117	18464.267578125
980.73747086746	18369.333984375
983.371626200825	18033.8671875
986.004920891854	17368.599609375
988.637355405927	16292.8330078125
991.268930208091	14709.56640625
993.899645763094	13226.3662109375
996.529502535374	12094.56640625
999.158500989077	11243.7666015625
1001.78664158804	10619.6337890625
1004.41392479578	10166.2666015625
1007.04035107555	9817
1009.66592089027	9439.099609375
1012.29063470255	9120.5
1014.91449297471	8908.06640625
1017.53749616879	8597.6337890625
1020.15964474646	8317.5
1022.78093916919	8087.16650390625
1025.40137989804	7847.56689453125
1028.02096739384	7595.83349609375
1030.6397021171	7377.2333984375
1033.257584528	7209.86669921875
1035.87461508647	7048.966796875
1038.49079425209	6940
1041.10612248418	6861.2666015625
1043.72060024173	6784.16650390625
1046.33422798343	6727.86669921875
1048.94700616768	6684
1051.55893525258	6653.533203125
1054.17001569593	6621.60009765625
1056.78024795523	6566.7001953125
1059.38963248767	6561.13330078125
1061.99816975014	6551.89990234375
1064.60586019925	6505.2666015625
1067.21270429129	6502.86669921875
1069.81870248227	6484.2333984375
1072.42385522787	6486.7998046875
1075.02816298352	6472.86669921875
1077.6316262043	6470.16650390625
1080.23424534501	6462.10009765625
1082.83602086017	6459.2666015625
1085.43695320399	6448.2998046875
1088.03704283036	6465.60009765625
1090.63629019293	6425.7998046875
1093.23469574496	6420.7001953125
1095.83225993951	6404.2998046875
1098.42898322928	6408.7001953125
1101.02486606671	6378.7001953125
1103.6199089039	6394.2666015625
1106.2141121927	6374.60009765625
1108.80747638464	6381.7998046875
1111.40000193095	6369.10009765625
1113.99168928258	6320.13330078125
1116.58253889016	6337.36669921875
1119.17255120405	6350.89990234375
1121.76172667429	6343.5
1124.35006575066	6301.033203125
1126.9375688826	6299.63330078125
1129.52423651929	6297.86669921875
1132.11006910959	6293.2001953125
1134.6950671021	6273.16650390625
1137.27923094508	6259.2998046875
1139.86256108653	6224.966796875
1142.44505797415	6235.16650390625
1145.02672205533	6222.7998046875
1147.60755377718	6190.83349609375
1150.18755358652	6215.10009765625
1152.76672192986	6201.466796875
1155.34505925343	6214.89990234375
1157.92256600317	6175.2998046875
1160.49924262472	6185.10009765625
1163.07508956343	6171.93310546875
1165.65010726433	6182.43310546875
1168.22429617222	6185.466796875
1170.79765673155	6138.2333984375
1173.3701893865	6128.7998046875
1175.94189458096	6155.2998046875
1178.51277275854	6147.2333984375
1181.08282436252	6151.5
1183.65204983592	6153.5
1186.22044962147	6168.33349609375
1188.7880241616	6159.63330078125
1191.35477389845	6132.89990234375
1193.92069927386	6178
1196.4858007294	6167.60009765625
1199.05007870634	6172
1201.61353364565	6193.7001953125
1204.17616598803	6192.2666015625
1206.73797617386	6172.13330078125
1209.29896464328	6221.7001953125
1211.85913183609	6218.66650390625
1214.41847819183	6215
1216.97700414974	6241.13330078125
1219.53471014878	6183.16650390625
1222.09159662761	6230.66650390625
1224.64766402461	6225.33349609375
1227.20291277786	6236.83349609375
1229.75734332518	6229.36669921875
1232.31095610407	6230.33349609375
1234.86375155175	6216.06689453125
1237.41573010517	6208.13330078125
1239.96689220099	6200
1242.51723827555	6199.533203125
1245.06676876494	6216.33349609375
1247.61548410496	6218.966796875
1250.16338473109	6207.60009765625
1252.71047107857	6237.10009765625
1255.25674358232	6204.7666015625
1257.80220267699	6239.13330078125
1260.34684879693	6201.5
1262.89068237622	6195.033203125
1265.43370384866	6223.2333984375
1267.97591364773	6204.89990234375
1270.51731220666	6189.7666015625
1273.05789995838	6207.63330078125
1275.59767733554	6186.33349609375
1278.1366447705	6239.33349609375
1280.67480269535	6226.39990234375
1283.21215154188	6221.2001953125
1285.74869174159	6230.86669921875
1288.28442372571	6238.33349609375
1290.8193479252	6215.2666015625
1293.3534647707	6270.86669921875
1295.88677469261	6256.33349609375
1298.41927812099	6252.66650390625
1300.95097548568	6285.13330078125
1303.48186721619	6279.43310546875
1306.01195374178	6283.39990234375
1308.5412354914	6263.13330078125
1311.06971289374	6269.2998046875
1313.59738637719	6321
1316.12425636987	6307.56689453125
1318.65032329961	6327.2998046875
1321.17558759397	6333.60009765625
1323.70004968023	6332.2666015625
1326.22370998537	6358.60009765625
1328.74656893609	6372.86669921875
1331.26862695885	6386.06689453125
1333.78988447977	6363.966796875
1336.31034192473	6360.2333984375
1338.82999971932	6400.2333984375
1341.34885828883	6386.89990234375
1343.86691805832	6377.7666015625
1346.38417945251	6436.13330078125
1348.90064289589	6399.86669921875
1351.41630881263	6431.466796875
1353.93117762666	6427
1356.4452497616	6403.36669921875
1358.95852564079	6416.7998046875
1361.47100568733	6422.83349609375
1363.982690324	6423.83349609375
1366.49357997333	6389.83349609375
1369.00367505754	6390.466796875
1371.51297599862	6392.63330078125
1374.02148321822	6363.13330078125
1376.52919713777	6355.39990234375
1379.03611817839	6317.2998046875
1381.54224676093	6314.2998046875
1384.04758330597	6312.89990234375
1386.55212823381	6288.033203125
1389.05588196447	6268.63330078125
1391.55884491769	6246.63330078125
1394.06101751295	6225.86669921875
1396.56240016941	6213.2666015625
1399.06299330603	6188.93310546875
1401.56279734144	6165.56689453125
1404.06181269398	6148.2333984375
1406.56003978177	6135.033203125
1409.05747902262	6109.63330078125
1411.55413083404	6104.89990234375
1414.04999563334	6094.89990234375
1416.54507383748	6083.7001953125
1419.03936586319	6068.5
1421.5328721269	6059.86669921875
1424.02559304479	6014.7333984375
1426.51752903275	6007.43310546875
1429.0086805064	6031.7666015625
1431.49904788109	5999.533203125
1433.98863157188	5990.5
1436.47743199359	5994.93310546875
1438.96544956074	5992.63330078125
1441.45268468757	5944.83349609375
1443.93913778808	5966.033203125
1446.42480927597	5944.93310546875
1448.90969956468	5944.93310546875
1451.39380906737	5928.86669921875
1453.87713819694	5888.33349609375
1456.35968736602	5880.033203125
1458.84145698693	5872.2998046875
1461.32244747178	5836.93310546875
1463.80265923236	5812.16650390625
1466.28209268021	5819.966796875
1468.7607482266	5806.966796875
1471.23862628251	5776.86669921875
1473.71572725868	5759.56689453125
1476.19205156556	5750.43310546875
1478.66759961333	5750.533203125
1481.14237181191	5705.2666015625
1483.61636857094	5724.7001953125
1486.08959029979	5728.2998046875
1488.56203740757	5715.7333984375
1491.03371030312	5717.36669921875
1493.504609395	5707.43310546875
1495.97473509153	5686.36669921875
1498.4440878007	5648.033203125
1500.9126679303	5667.033203125
1503.3804758878	5683.466796875
1505.84751208046	5679.966796875
1508.31377691521	5673.966796875
1510.77927079874	5672.5
1513.24399413748	5667.5
1515.70794733758	5658
1518.17113080493	5668.66650390625
1520.63354494515	5699.66650390625
1523.09519016358	5683.36669921875
1525.55606686532	5677.56689453125
1528.01617545519	5676.56689453125
1530.47551633774	5699.966796875
1532.93408991725	5704.43310546875
1535.39189659775	5741.966796875
1537.84893678299	5747.466796875
1540.30521087647	5762.966796875
1542.7607192814	5774.2001953125
1545.21546240076	5804.7001953125
1547.66944063722	5818.39990234375
1550.12265439323	5843.7001953125
1552.57510407094	5863.39990234375
1555.02679007225	5868.56689453125
1557.47771279882	5897.66650390625
1559.92787265198	5932.466796875
1562.37727003288	5941.2666015625
1564.82590534234	5976.56689453125
1567.27377898094	5995.43310546875
1569.72089134901	6013.2666015625
1572.16724284659	6057.63330078125
1574.61283387349	6050.83349609375
1577.05766482921	6105.83349609375
1579.50173611304	6127.033203125
1581.94504812397	6160.5
1584.38760126074	6146.43310546875
1586.82939592183	6224.36669921875
1589.27043250547	6189.033203125
1591.71071140959	6220.06689453125
1594.1502330319	6209
1596.58899776981	6209.06689453125
1599.02700602052	6183.93310546875
1601.46425818091	6193.7333984375
1603.90075464766	6178.63330078125
1606.33649581713	6163.60009765625
1608.77148208546	6120.966796875
1611.2057138485	6114.06689453125
1613.63919150188	6067.63330078125
1616.07191544093	6008.13330078125
1618.50388606074	5988.43310546875
1620.93510375615	5904.56689453125
1623.3655689217	5879.2998046875
1625.79528195172	5806.10009765625
1628.22424324025	5743.2998046875
1630.65245318109	5668.36669921875
1633.07991216775	5589.66650390625
1635.50662059351	5524.66650390625
1637.93257885141	5422.39990234375
1640.35778733417	5408.16650390625
1642.78224643431	5334.16650390625
1645.20595654406	5254.2998046875
1647.62891805542	5185.43310546875
1650.05113136009	5146.033203125
1652.47259684955	5114.39990234375
1654.89331491501	5049.2333984375
1657.31328594743	5035.66650390625
1659.73251033749	4954.86669921875
1662.15098847565	4939.39990234375
1664.56872075208	4940.39990234375
1666.98570755671	4896.2666015625
1669.40194927923	4853.63330078125
1671.81744630902	4864.83349609375
1674.23219903527	4853.466796875
1676.64620784688	4820.10009765625
1679.05947313249	4812.63330078125
1681.47199528049	4771.16650390625
1683.88377467904	4765.5
1686.29481171601	4743.86669921875
1688.70510677902	4729.33349609375
1691.11466025546	4718.63330078125
1693.52347253247	4710.7998046875
1695.93154399686	4710
1698.33887503531	4682.33349609375
1700.74546603413	4680.43310546875
1703.15131737945	4679.63330078125
1705.55642945712	4665.36669921875
1707.96080265273	4668.39990234375
1710.36443735164	4667.966796875
1712.76733393892	4657.2001953125
1715.16949279944	4664.10009765625
1717.57091431778	4627.43310546875
1719.97159887826	4626.36669921875
1722.37154686498	4616.16650390625
1724.77075866177	4610.16650390625
1727.1692346522	4601.89990234375
1729.56697521962	4608.39990234375
1731.96398074709	4591.2333984375
1734.36025161743	4595.2998046875
1736.75578821323	4572.06689453125
1739.15059091682	4560.7333984375
1741.54466011027	4585.93310546875
1743.93799617539	4560.33349609375
1746.33059949376	4553.2333984375
1748.72247044671	4560.033203125
1751.11360941531	4562.7998046875
1753.50401678037	4550.16650390625
1755.89369292247	4524.83349609375
1758.28263822195	4547.36669921875
1760.67085305887	4495.39990234375
1763.05833781306	4535.16650390625
1765.4450928641	4520.2666015625
1767.83111859131	4506
1770.21641537377	4484.7666015625
1772.60098359033	4500.39990234375
1774.98482361954	4502.7333984375
1777.36793583978	4496.60009765625
1779.75032062909	4482.89990234375
1782.13197836535	4474.63330078125
1784.51290942612	4469.83349609375
1786.89311418877	4440.83349609375
1789.27259303038	4457.66650390625
1791.65134632782	4439.93310546875
1794.02937445768	4420.39990234375
1796.40667779632	4434.7001953125
1798.78325671986	4429.13330078125
1801.15911160415	4432.7998046875
1803.53424282482	4424.86669921875
1805.90865075725	4415.16650390625
1808.28233577656	4428.56689453125
1810.65529825763	4402.7001953125
1813.0275385751	4393.033203125
1815.39905710336	4418
1817.76985421656	4385.033203125
1820.1399302886	4388.10009765625
1822.50928569314	4402.5
1824.8779208036	4379.2333984375
1827.24583599314	4388.533203125
1829.61303163468	4375.033203125
1831.97950810092	4396.39990234375
1834.34526576427	4373.93310546875
1836.71030499695	4372.7001953125
1839.0746261709	4394.7998046875
1841.43822965782	4357.5
1843.80111582919	4366.86669921875
1846.16328505622	4330.43310546875
1848.5247377099	4348.36669921875
1850.88547416095	4342.60009765625
1853.24549477987	4335.7001953125
1855.60479993693	4337.56689453125
1857.96339000213	4320.5
1860.32126534522	4336.10009765625
1862.67842633576	4332.43310546875
1865.03487334299	4320.2998046875
1867.39060673601	4322.7333984375
1869.74562688358	4319.60009765625
1872.09993415429	4301.10009765625
1874.45352891644	4294.466796875
1876.80641153813	4279.7001953125
1879.15858238719	4287.86669921875
1881.51004183123	4285.39990234375
1883.8607902376	4246.7333984375
1886.21082797343	4245.10009765625
1888.5601554056	4288.60009765625
1890.90877290074	4254.63330078125
1893.25668082527	4256.89990234375
1895.60387954535	4238.7001953125
1897.9503694269	4268.60009765625
1900.29615083561	4243.13330078125
1902.64122413693	4271.89990234375
1904.98558969606	4257.63330078125
1907.32924787797	4247.36669921875
1909.67219904742	4225.43310546875
1912.01444356887	4239.66650390625
1914.3559818066	4240.2998046875
1916.69681412463	4226.7001953125
1919.03694088673	4238.7998046875
1921.37636245645	4230.2666015625
1923.71507919711	4228.63330078125
1926.05309147176	4211.16650390625
1928.39039964327	4235.43310546875
1930.72700407421	4209.2333984375
1933.06290512695	4235.86669921875
1935.39810316362	4235.89990234375
1937.73259854611	4250.2666015625
1940.06639163608	4221.033203125
1942.39948279493	4222.83349609375
1944.73187238387	4213.7333984375
1947.06356076384	4229.60009765625
1949.39454829555	4230.89990234375
1951.72483533948	4214.7666015625
1954.05442225588	4199.966796875
1956.38330940476	4204.2333984375
1958.71149714589	4215.33349609375
1961.03898583882	4198.43310546875
1963.36577584285	4196.43310546875
1965.69186751706	4190.33349609375
1968.01726122028	4206.7998046875
1970.34195731113	4186.86669921875
1972.66595614798	4178.13330078125
1974.98925808898	4168.2333984375
1977.31186349201	4177.2666015625
1979.63377271478	4154.2333984375
1981.95498611472	4167.66650390625
1984.27550404903	4162.7001953125
1986.59532687469	4158.93310546875
1988.91445494847	4153
1991.23288862685	4143.66650390625
1993.55062826614	4131.533203125
1995.86767422238	4133.06689453125
1998.18402685139	4126.7001953125
2000.49968650876	4121.10009765625
2002.81465354985	4118.2001953125
2005.12892832979	4134.5
2007.44251120347	4122.93310546875
2009.75540252556	4107.89990234375
2012.06760265049	4113.86669921875
2014.37911193249	4103
2016.6899307255	4096.2001953125
2019.0000593833	4095.83325195313
2021.30949825938	4091.66674804688
2023.61824770704	4094.46655273438
2025.92630807934	4082.66674804688
2028.23367972911	4086.80004882813
2030.54036300895	4091.46655273438
2032.84635827122	4090.2333984375
2035.15166586809	4091.56665039063
2037.45628615144	4095.5
2039.760219473	4085.46655273438
2042.06346618419	4087.36669921875
2044.36602663625	4088.69995117188
2046.66790118021	4086.7666015625
2048.96909016682	4073.60009765625
2051.26959394663	4107.83349609375
2053.56941286997	4081.13330078125
2055.86854728693	4079.60009765625
2058.16699754739	4085.53344726563
2060.46476400098	4082.5
2062.76184699713	4071.93334960938
2065.058246885	4095.16674804688
2067.35396401358	4078.10009765625
2069.64899873161	4074.2666015625
2071.94335138758	4064.89990234375
2074.2370223298	4057.10009765625
2076.53001190631	4069.86669921875
2078.82232046496	4077
2081.11394835335	4058.2666015625
2083.40489591888	4070.56665039063
2085.6951635087	4048.39990234375
2087.98475146976	4063.60009765625
2090.27366014875	4071.89990234375
2092.56188989219	4046.89990234375
2094.84944104631	4016.2333984375
2097.13631395718	4037.16674804688
2099.4225089706	4028.83325195313
2101.70802643217	4039.16674804688
2103.99286668728	3994.46655273438
2106.27703008104	4028.06665039063
2108.5605169584	3989.69995117188
2110.84332766406	4010.19995117188
2113.1254625425	4028.2333984375
2115.40692193797	3996.7333984375
2117.68770619451	3997.5
2119.96781565593	3988.36669921875
2122.24725066583	3981.66674804688
2124.52601156757	3970.19995117188
2126.80409870431	3998.60009765625
2129.08151241896	3979.30004882813
2131.35825305425	3973.56665039063
2133.63432095264	3964.36669921875
2135.90971645641	3972.16674804688
2138.1844399076	3976.19995117188
2140.45849164803	3988.80004882813
2142.73187201931	3980.39990234375
2145.00458136282	3967.36669921875
2147.27662001972	3972.33325195313
2149.54798833095	3984.39990234375
2151.81868663725	3973.69995117188
2154.0887152791	3968.33325195313
2156.3580745968	3960.43334960938
2158.62676493042	3970.69995117188
2160.89478661981	3952.96655273438
2163.16214000458	3958.5
2165.42882542414	3958.03344726563
2167.69484321771	3958.86669921875
2169.96019372424	3963.16674804688
2172.2248772825	3967.13330078125
2174.48889423101	3979.36669921875
2176.7522449081	3976.60009765625
2179.01492965187	3967.16674804688
2181.27694880022	3973.46655273438
2183.53830269079	3960.96655273438
2185.79899166106	3956.96655273438
2188.05901604825	3961.96655273438
2190.31837618938	3963.53344726563
2192.57707242125	3939.39990234375
2194.83510508044	3945.86669921875
2197.09247450333	3945.96655273438
2199.34918102607	3942.19995117188
2201.60522498459	3944.06665039063
2203.86060671463	3933.69995117188
2206.11532655168	3912.2333984375
2208.36938483104	3906.93334960938
2210.62278188778	3910.89990234375
2212.87551805676	3910.7333984375
2215.12759367264	3924.43334960938
2217.37900906984	3916.36669921875
2219.62976458259	3879.06665039063
2221.87986054487	3916.69995117188
2224.1292972905	3894.03344726563
2226.37807515303	3893.63330078125
2228.62619446583	3891.80004882813
2230.87365556206	3861.5
2233.12045877465	3883
2235.36660443631	3876.2333984375
2237.61209287956	3859.2333984375
2239.8569244367	3884.7333984375
2242.10109943981	3884.60009765625
2244.34461822076	3864.93334960938
2246.58748111121	3877.13330078125
2248.82968844261	3884.83325195313
2251.07124054618	3864.93334960938
2253.31213775297	3873.66674804688
2255.55238039377	3879.03344726563
2257.79196879919	3851.96655273438
2260.03090329962	3856.56665039063
2262.26918422523	3863.93334960938
2264.50681190599	3852.10009765625
2266.74378667167	3845.10009765625
2268.98010885179	3880.06665039063
2271.2157787757	3851
2273.45079677254	3859.93334960938
2275.6851631712	3852.39990234375
2277.9188783004	3863.80004882813
2280.15194248863	3856.7333984375
2282.38435606418	3856.2333984375
2284.61611935512	3867.96655273438
2286.84723268932	3852.56665039063
2289.07769639444	3845.56665039063
2291.30751079794	3847.2666015625
2293.53667622705	3865.60009765625
2295.76519300879	3831.93334960938
2297.99306147001	3838.86669921875
2300.22028193732	3843.03344726563
2302.44685473711	3838.56665039063
2304.6727801956	3837.83325195313
2306.89805863878	3834.63330078125
2309.12269039242	3842.60009765625
2311.34667578211	3833.2333984375
2313.57001513323	3830.03344726563
2315.79270877092	3829.66674804688
2318.01475702017	3843.7333984375
2320.2361602057	3846
2322.45691865206	3816.19995117188
2324.6770326836	3836.7333984375
2326.89650262444	3813.53344726563
2329.11532879851	3842.2666015625
2331.33351152953	3804.10009765625
2333.55105114102	3817.46655273438
2335.76794795629	3812.66674804688
2337.98420229842	3819.16674804688
2340.19981449035	3819.7333984375
2342.41478485473	3796.96655273438
2344.62911371408	3805.96655273438
2346.84280139066	3808.83325195313
2349.05584820658	3796.80004882813
2351.26825448369	3813.7666015625
2353.48002054368	3803.19995117188
2355.691146708	3805.33325195313
2357.90163329792	3801.2333984375
2360.11148063452	3798.13330078125
2362.32068903863	3772.66674804688
2364.52925883092	3795.89990234375
2366.73719033183	3782.43334960938
2368.94448386163	3807.33325195313
2371.15113974034	3794.5
2373.35715828782	3796.13330078125
2375.5625398237	3778.7666015625
2377.76728466743	3798.30004882813
2379.97139313824	3795.2333984375
2382.17486555516	3780.13330078125
2384.37770223703	3805.5
2386.57990350247	3787.06665039063
2388.78146966994	3783
2390.98240105763	3795.69995117188
2393.18269798359	3783.86669921875
2395.38236076565	3797.66674804688
2397.58138972143	3789.30004882813
2399.77978516836	3781.93334960938
2401.97754742366	3777.2333984375
2404.17467680435	3797.03344726563
2406.37117362728	3787.63330078125
2408.56703820905	3765.36669921875
2410.7622708661	3774.10009765625
2412.95687191466	3768
2415.15084167074	3768.96655273438
2417.34418045018	3767.66674804688
2419.53688856861	3775.36669921875
2421.72896634147	3778.43334960938
2423.92041408397	3777.2333984375
2426.11123211117	3780
2428.30142073788	3772.19995117188
2430.49098027875	3752.63330078125
2432.67991104822	3756.39990234375
2434.86821336053	3769.36669921875
2437.05588752972	3754.83325195313
2439.24293386965	3764.16674804688
2441.42935269395	3755.13330078125
2443.61514431608	3745.10009765625
2445.80030904931	3750.63330078125
2447.98484720668	3743.7333984375
2450.16875910105	3747.7333984375
2452.3520450451	3752.7666015625
2454.53470535129	3760.7666015625
2456.7167403319	3739.43334960938
2458.898150299	3750.03344726563
2461.07893556448	3739.56665039063
2463.25909644001	3739.7333984375
2465.4386332371	3744.2333984375
2467.61754626704	3744.13330078125
2469.79583584091	3739.60009765625
2471.97350226965	3739.89990234375
2474.15054586395	3741.06665039063
2476.32696693433	3745.66674804688
2478.50276579111	3735.5
2480.67794274441	3741.63330078125
2482.85249810418	3760.86669921875
2485.02643218015	3738.60009765625
2487.19974528187	3737.30004882813
2489.37243771868	3742.16674804688
2491.54450979976	3727.89990234375
2493.71596183406	3734.46655273438
2495.88679413036	3749.89990234375
2498.05700699723	3756.56665039063
2500.22660074307	3736.89990234375
2502.39557567606	3729.96655273438
2504.56393210422	3720.7666015625
2506.73167033534	3719.16674804688
2508.89879067706	3724.93334960938
2511.06529343678	3719.5
2513.23117892175	3730.83325195313
2515.39644743903	3723.7333984375
2517.56109929543	3718.13330078125
2519.72513479764	3716.30004882813
2521.88855425212	3715.86669921875
2524.05135796515	3720.96655273438
2526.21354624281	3710.80004882813
2528.37511939102	3716.06665039063
2530.53607771546	3714.53344726563
2532.69642152166	3710.10009765625
2534.85615111494	3712.80004882813
2537.01526680044	3721.86669921875
2539.17376888311	3712.03344726563
2541.3316576677	3717.93334960938
2543.48893345878	3723.10009765625
2545.64559656073	3713.66674804688
2547.80164727774	3708.7666015625
2549.95708591381	3706.2666015625
2552.11191277276	3720.10009765625
2554.2661281582	3714.06665039063
2556.41973237357	3700.7666015625
2558.57272572212	3711.46655273438
2560.72510850691	3724.03344726563
2562.8768810308	3715.39990234375
2565.02804359649	3701.66674804688
2567.17859650646	3717.46655273438
2569.32854006303	3715.7333984375
2571.47787456831	3705.7666015625
2573.62660032425	3724.60009765625
2575.77471763258	3699.10009765625
2577.92222679487	3712.63330078125
2580.0691281125	3722.80004882813
2582.21542188663	3720.39990234375
2584.3611084183	3719.93334960938
2586.5061880083	3710.66674804688
2588.65066095727	3729.7333984375
2590.79452756565	3723.7333984375
2592.9377881337	3705.69995117188
2595.08044296149	3702.63330078125
2597.22249234891	3732.10009765625
2599.36393659566	3719.86669921875
2601.50477600126	3718.30004882813
2603.64501086504	3719.39990234375
2605.78464148615	3710.43334960938
2607.92366816356	3700.46655273438
2610.06209119605	3716.30004882813
2612.1999108822	3695.80004882813
2614.33712752044	3709.53344726563
2616.47374140899	3705.56665039063
2618.60975284589	3699.46655273438
2620.74516212901	3698.53344726563
2622.87996955602	3692.5
2625.01417542443	3694.93334960938
2627.14778003154	3698.2333984375
2629.28078367448	3706.89990234375
2631.41318665019	3705.86669921875
2633.54498925545	3706.96655273438
2635.67619178683	3713.2666015625
2637.80679454074	3685.63330078125
2639.93679781339	3699.7666015625
2642.06620190081	3700.7333984375
2644.19500709887	3696.60009765625
2646.32321370324	3688.16674804688
2648.4508220094	3705.2666015625
2650.57783231268	3692.2666015625
2652.7042449082	3703.10009765625
2654.8300600909	3708.53344726563
2656.95527815557	3716.33325195313
2659.07989939677	3698.56665039063
2661.20392410894	3703.93334960938
2663.32735258629	3709.7666015625
2665.45018512287	3703.93334960938
2667.57242201254	3705.86669921875
2669.69406354901	3710.16674804688
2671.81511002577	3702.2666015625
2673.93556173616	3690.93334960938
2676.05541897333	3710.63330078125
2678.17468203024	3705.46655273438
2680.2933511997	3715.16674804688
2682.41142677431	3710.13330078125
2684.52890904651	3695.63330078125
2686.64579830858	3696.39990234375
2688.76209485256	3722.46655273438
2690.87779897038	3716.19995117188
2692.99291095376	3710.39990234375
2695.10743109424	3691.66674804688
2697.22135968318	3712.93334960938
2699.33469701179	3701.2666015625
2701.44744337108	3710.36669921875
2703.55959905187	3699.36669921875
2705.67116434485	3692.43334960938
2707.78213954048	3703.39990234375
2709.89252492907	3681.7333984375
2712.00232080076	3710.53344726563
2714.1115274455	3688.36669921875
2716.22014515307	3695
2718.32817421306	3675.39990234375
2720.43561491492	3689.2666015625
2722.54246754789	3687.69995117188
2724.64873240104	3692.03344726563
2726.75440976329	3688.60009765625
2728.85949992335	3674.06665039063
2730.96400316978	3674.69995117188
2733.06791979094	3685.96655273438
2735.17125007505	3668.7666015625
2737.27399431013	3672.13330078125
2739.37615278404	3682.80004882813
2741.47772578445	3686
2743.57871359887	3669.16674804688
2745.67911651463	3668
2747.7789348189	3685.56665039063
2749.87816879864	3662.83325195313
2751.97681874068	3664.80004882813
2754.07488493166	3673.83325195313
2756.17236765804	3669.39990234375
2758.26926720611	3683.53344726563
2760.36558386199	3661.53344726563
2762.46131791164	3652.7666015625
2764.55646964082	3659.53344726563
2766.65103933514	3675.80004882813
2768.74502728003	3656.5
2770.83843376075	3670.43334960938
2772.93125906238	3659.66674804688
2775.02350346986	3673.5
2777.11516726792	3668.5
2779.20625074112	3667.69995117188
2781.29675417389	3658.83325195313
2783.38667785045	3645.36669921875
2785.47602205485	3653.96655273438
2787.564787071	3657.16674804688
2789.65297318262	3636.89990234375
2791.74058067325	3654.39990234375
2793.82760982627	3656.13330078125
2795.9140609249	3648.5
2797.99993425218	3648.53344726563
2800.08523009097	3670.86669921875
2802.16994872399	3634.89990234375
2804.25409043376	3651.7666015625
2806.33765550265	3644.63330078125
2808.42064421285	3635.33325195313
2810.5030568464	3654.10009765625
2812.58489368514	3645.83325195313
2814.66615501076	3656.7333984375
2816.7468411048	3646.56665039063
2818.8269522486	3643.5
2820.90648872334	3628
2822.98545081005	3635.46655273438
2825.06383878958	3639.7333984375
2827.1416529426	3649.36669921875
2829.21889354963	3637.33325195313
2831.29556089103	3619.93334960938
2833.37165524697	3618.86669921875
2835.44717689746	3641.7333984375
2837.52212612235	3617.60009765625
2839.59650320133	3623.06665039063
2841.67030841392	3609.89990234375
2843.74354203945	3617.43334960938
2845.81620435711	3622.10009765625
2847.88829564593	3625.83325195313
2849.95981618474	3631.96655273438
2852.03076625224	3616.66674804688
2854.10114612695	3611.33325195313
2856.17095608722	3632.39990234375
2858.24019641124	3606.2666015625
2860.30886737704	3618.16674804688
2862.37696926247	3613.83325195313
2864.44450234525	3608.03344726563
2866.51146690289	3618.69995117188
2868.57786321276	3600.86669921875
2870.64369155207	3595.86669921875
2872.70895219786	3624.93334960938
2874.77364542701	3590.36669921875
2876.83777151622	3630.7333984375
2878.90133074205	3610.5
2880.96432338087	3607.89990234375
2883.02674970892	3610.56665039063
2885.08861000225	3599.03344726563
2887.14990453676	3603.36669921875
2889.21063358818	3594
2891.27079743209	3580.80004882813
2893.33039634389	3611.69995117188
2895.38943059883	3586.53344726563
2897.447900472	3601.33325195313
2899.50580623832	3600.80004882813
2901.56314817254	3586.16674804688
2903.61992654928	3597.80004882813
2905.67614164298	3592.06665039063
2907.73179372789	3587.63330078125
2909.78688307816	3591.43334960938
2911.84140996772	3596.46655273438
2913.89537467038	3575.63330078125
2915.94877745976	3584.63330078125
2918.00161860935	3577.66674804688
2920.05389839246	3578.19995117188
2922.10561708223	3594.2333984375
2924.15677495167	3566.7333984375
2926.20737227361	3565.86669921875
2928.25740932072	3569.46655273438
2930.30688636552	3581.53344726563
2932.35580368036	3565.7666015625
2934.40416153743	3562.2666015625
2936.45196020879	3563
2938.49919996629	3561.5
2940.54588108167	3564.16674804688
2942.59200382649	3572.7666015625
2944.63756847214	3563.7666015625
2946.68257528988	3580.63330078125
2948.72702455079	3562.83325195313
2950.7709165258	3553.60009765625
2952.81425148567	3557.43334960938
2954.85702970103	3546.10009765625
2956.89925144233	3535.2666015625
2958.94091697988	3541
2960.9820265838	3543.36669921875
2963.02258052408	3544.03344726563
2965.06257907056	3544.86669921875
2967.1020224929	3534.19995117188
2969.14091106062	3535.2666015625
2971.17924504309	3548.69995117188
2973.21702470949	3527.33325195313
2975.25425032888	3531.33325195313
2977.29092217015	3541.43334960938
2979.32704050203	3528.43334960938
2981.36260559311	3530.46655273438
2983.3976177118	3522.96655273438
2985.43207712638	3514.83325195313
2987.46598410496	3523.13330078125
2989.4993389155	3521.89990234375
2991.5321418258	3521.96655273438
2993.56439310352	3517.63330078125
2995.59609301614	3537.69995117188
2997.62724183102	3517.80004882813
2999.65783981532	3519.89990234375
3001.6878872361	3518.10009765625
3003.71738436023	3496.86669921875
3005.74633145443	3496.63330078125
3007.77472878527	3505.96655273438
3009.80257661918	3509.36669921875
3011.82987522242	3515.13330078125
3013.85662486111	3507.60009765625
3015.88282580119	3488.7666015625
3017.90847830848	3482.5
3019.93358264864	3489.2333984375
3021.95813908716	3491.33325195313
3023.9821478894	3489.2333984375
3026.00560932055	3483.69995117188
3028.02852364566	3498.33325195313
3030.05089112962	3467.06665039063
3032.07271203718	3485.43334960938
3034.09398663292	3480.53344726563
3036.11471518128	3475.2666015625
3038.13489794656	3479.80004882813
3040.15453519289	3477.16674804688
3042.17362718426	3469.39990234375
3044.1921741845	3452.30004882813
3046.2101764573	3467.2666015625
3048.22763426619	3465.66674804688
3050.24454787457	3479.10009765625
3052.26091754566	3466.83325195313
3054.27674354254	3444.69995117188
3056.29202612816	3456.86669921875
3058.3067655653	3456.03344726563
3060.32096211659	3446.86669921875
3062.33461604452	3463.7666015625
3064.34772761144	3436.10009765625
3066.36029707952	3472.63330078125
3068.37232471081	3455.46655273438
3070.3838107672	3450.2333984375
3072.39475551043	3452.19995117188
3074.40515920209	3455.2333984375
3076.41502210364	3459.69995117188
3078.42434447637	3458.06665039063
3080.43312658143	3450.60009765625
3082.44136867982	3437.13330078125
3084.44907103239	3434.16674804688
3086.45623389987	3443.19995117188
3088.4628575428	3434.69995117188
3090.4689422216	3435.16674804688
3092.47448819653	3437.2333984375
3094.47949572772	3445.19995117188
3096.48396507513	3423.80004882813
3098.48789649859	3427.43334960938
3100.49129025779	3424.7666015625
3102.49414661225	3418.66674804688
3104.49646582136	3428.86669921875
3106.49824814437	3421.60009765625
3108.49949384037	3417.93334960938
3110.50020316831	3422.80004882813
3112.500376387	3416.16674804688
3114.50001375509	3410.10009765625
3116.4991155311	3414.06665039063
3118.4976819734	3380.13330078125
3120.49571334021	3411.53344726563
3122.49320988962	3410.83325195313
3124.49017187955	3415.60009765625
3126.48659956781	3384.69995117188
3128.48249321203	3383.36669921875
3130.47785306973	3391.7666015625
3132.47267939825	3379.80004882813
3134.46697245482	3385.03344726563
3136.46073249651	3387.60009765625
3138.45395978023	3397.33325195313
3140.44665456279	3372.33325195313
3142.43881710082	3370.69995117188
3144.43044765083	3368.83325195313
3146.42154646916	3373.33325195313
3148.41211381202	3370.53344726563
3150.4021499355	3371.10009765625
3152.39165509552	3388.7666015625
3154.38062954786	3368.83325195313
3156.36907354817	3365.13330078125
3158.35698735195	3368.83325195313
3160.34437121457	3361
3162.33122539124	3374.2666015625
3164.31755013704	3363.46655273438
3166.3033457069	3362.96655273438
3168.28861235562	3361.7333984375
3170.27335033786	3367.56665039063
3172.25755990813	3357.5
3174.2412413208	3355.2666015625
3176.22439483009	3373.36669921875
3178.20702069011	3358.5
3180.18911915481	3353.80004882813
3182.17069047799	3342.03344726563
3184.15173491334	3346
3186.13225271437	3342.13330078125
3188.11224413448	3342.89990234375
3190.09170942692	3335.46655273438
3192.07064884482	3337.2333984375
3194.04906264114	3329.46655273438
3196.02695106871	3324.33325195313
3198.00431438023	3328.36669921875
3199.98115282827	3319.03344726563
3201.95746666524	3307.2333984375
3203.93325614341	3317.93334960938
3205.90852151494	3309.33325195313
3207.88326303182	3303.93334960938
3209.85748094592	3328.69995117188
3211.83117550897	3314.56665039063
3213.80434697256	3312.66674804688
3215.77699558815	3319.80004882813
3217.74912160705	3295.43334960938
3219.72072528044	3296.43334960938
3221.69180685935	3290.53344726563
3223.6623665947	3280.43334960938
3225.63240473726	3297.60009765625
3227.60192153764	3291.19995117188
3229.57091724636	3288.56665039063
3231.53939211376	3288.66674804688
3233.50734639007	3308.56665039063
3235.47478032538	3281.2666015625
3237.44169416964	3274.39990234375
3239.40808817265	3279.53344726563
3241.3739625841	3271.5
3243.33931765354	3275.39990234375
3245.30415363038	3268.13330078125
3247.26847076388	3272.39990234375
3249.23226930318	3284.56665039063
3251.1955494973	3267.33325195313
3253.15831159509	3265.66674804688
3255.1205558453	3255.46655273438
3257.08228249652	3259.5
3259.04349179722	3257.2333984375
3261.00418399574	3258.80004882813
3262.96435934026	3235.80004882813
3264.92401807885	3251.93334960938
3266.88316045946	3248.13330078125
3268.84178672986	3248.36669921875
3270.79989713773	3239.03344726563
3272.7574919306	3248.7666015625
3274.71457135587	3244.83325195313
3276.6711356608	3241.7666015625
3278.62718509252	3240.63330078125
3280.58271989803	3233.83325195313
3282.53774032421	3251.60009765625
3284.49224661778	3236.03344726563
3286.44623902535	3231.46655273438
3288.39971779339	3240.93334960938
3290.35268316824	3244.89990234375
3292.30513539611	3227.66674804688
3294.25707472307	3226.46655273438
3296.20850139507	3223.39990234375
3298.15941565793	3209.80004882813
3300.10981775731	3203.83325195313
3302.05970793879	3204.89990234375
3304.00908644778	3216.7666015625
3305.95795352955	3223.63330078125
3307.9063094293	3199.46655273438
3309.85415439202	3214.39990234375
3311.80148866264	3214.69995117188
3313.74831248591	3199.2333984375
3315.69462610647	3202.16674804688
3317.64042976884	3195.2333984375
3319.58572371739	3196.43334960938
3321.53050819639	3194.16674804688
3323.47478344994	3196.80004882813
3325.41854972204	3177.5
3327.36180725656	3194.69995117188
3329.30455629722	3197.60009765625
3331.24679708763	3180.2666015625
3333.18852987128	3201.7666015625
3335.12975489151	3190.2666015625
3337.07047239154	3187.43334960938
3339.01068261447	3184.89990234375
3340.95038580325	3179.2333984375
3342.88958220072	3170.13330078125
3344.82827204961	3178.7666015625
3346.76645559248	3168.80004882813
3348.70413307179	3163.33325195313
3350.64130472987	3178.60009765625
3352.57797080891	3173.2333984375
3354.51413155099	3166.69995117188
3356.44978719807	3146.96655273438
3358.38493799195	3165.16674804688
3360.31958417434	3161.39990234375
3362.25372598679	3164.83325195313
3364.18736367075	3159.46655273438
3366.12049746753	3146.89990234375
3368.05312761833	3136.7333984375
3369.9852543642	3167.30004882813
3371.91687794609	3135
3373.8479986048	3143.56665039063
3375.77861658103	3135
3377.70873211532	3154.16674804688
3379.63834544813	3147.33325195313
3381.56745681977	3134.7333984375
3383.49606647041	3122.93334960938
3385.42417464013	3139.56665039063
3387.35178156885	3127.86669921875
3389.27888749641	3130.2333984375
3391.20549266247	3137.86669921875
3393.13159730662	3133.63330078125
3395.05720166829	3134.36669921875
3396.9823059868	3113.7666015625
3398.90691050135	3134.46655273438
3400.83101545101	3118.63330078125
3402.75462107473	3117.89990234375
3404.67772761132	3127.36669921875
3406.60033529949	3120.96655273438
3408.52244437783	3113
3410.44405508479	3107.39990234375
3412.3651676587	3105.30004882813
3414.28578233777	3110.56665039063
3416.2058993601	3094.5
3418.12551896366	3105.2666015625
3420.04464138627	3094.53344726563
3421.96326686569	3098.63330078125
3423.88139563949	3097.93334960938
3425.79902794517	3098.53344726563
3427.71616402009	3104.13330078125
3429.63280410148	3098.36669921875
3431.54894842645	3092.2333984375
3433.464597232	3084.36669921875
3435.37975075503	3105.33325195313
3437.29440923226	3103.86669921875
3439.20857290035	3097.03344726563
3441.12224199579	3092.96655273438
3443.035416755	3086.66674804688
3444.94809741424	3090.60009765625
3446.86028420966	3095.7333984375
3448.7719773773	3101.2333984375
3450.68317715308	3093.46655273438
3452.59388377278	3085.30004882813
3454.50409747209	3084.56665039063
3456.41381848656	3093.39990234375
3458.32304705162	3087.80004882813
3460.2317834026	3079.53344726563
3462.1400277747	3088.80004882813
3464.047780403	3086.80004882813
3465.95504152246	3084.10009765625
3467.86181136793	3092.83325195313
3469.76809017412	3081.60009765625
3471.67387817566	3079.56665039063
3473.57917560703	3081.16674804688
3475.4839827026	3079.30004882813
3477.38829969664	3075.96655273438
3479.29212682326	3075.7333984375
3481.19546431651	3068.19995117188
3483.09831241027	3072.53344726563
3485.00067133835	3053.89990234375
3486.9025413344	3042.96655273438
3488.80392263197	3054.60009765625
3490.70481546451	3045.53344726563
3492.60522006534	3057.63330078125
3494.50513666765	3050.16674804688
3496.40456550454	3050.2333984375
3498.30350680898	3039.30004882813
3500.20196081382	3031.80004882813
3502.0999277518	3033.13330078125
3503.99740785554	3040.83325195313
3505.89440135756	3036.86669921875
3507.79090849025	3025.36669921875
3509.68692948589	3041.5
3511.58246457663	3016.13330078125
3513.47751399454	3029.63330078125
3515.37207797153	3020.19995117188
3517.26615673944	3013.2333984375
3519.15975052996	3029.16674804688
3521.05285957469	3016.7333984375
3522.9454841051	3004.89990234375
3524.83762435255	3020.66674804688
3526.7292805483	3022.36669921875
3528.62045292348	3008.66674804688
3530.5111417091	3009.39990234375
3532.40134713609	3015.43334960938
3534.29106943522	3005.13330078125
3536.18030883718	3013.36669921875
3538.06906557255	3006.46655273438
3539.95733987177	2992.56665039063
3541.84513196519	3013.2333984375
3543.73244208305	3005.06665039063
3545.61927045544	3025.56665039063
3547.5056173124	3000.66674804688
3549.39148288379	3005.5
3551.27686739942	3003.96655273438
3553.16177108894	3006.93334960938
3555.04619418191	3011.83325195313
3556.93013690779	3018.69995117188
3558.8135994959	3019.06665039063
3560.69658217547	3027.43334960938
3562.57908517561	3011.39990234375
3564.46110872532	3020.46655273438
3566.3426530535	3023.7333984375
3568.22371838891	3015.80004882813
3570.10430496024	3004.39990234375
3571.98441299604	2997.86669921875
3573.86404272476	3006.86669921875
3575.74319437474	2994.7333984375
3577.62186817419	3002.60009765625
3579.50006435126	2996.39990234375
3581.37778313393	2996.33325195313
3583.25502475011	3012.30004882813
3585.1317894276	2982.2666015625
3587.00807739406	2991.06665039063
3588.88388887708	2987.83325195313
3590.7592241041	2969.33325195313
3592.6340833025	2988.43334960938
3594.50846669951	2982.56665039063
3596.38237452226	2972.13330078125
3598.25580699778	2981.33325195313
3600.128764353	2973.96655273438
3602.00124681473	2978.19995117188
3603.87325460965	2961.39990234375
3605.74478796438	2967.39990234375
3607.6158471054	2967.83325195313
3609.48643225908	2982.13330078125
3611.35654365171	2970.46655273438
3613.22618150943	2957.86669921875
3615.09534605832	2963.2666015625
3616.96403752432	2976.13330078125
3618.83225613328	2954.16674804688
3620.70000211093	2966
3622.56727568289	2955.43334960938
3624.43407707471	2963.53344726563
3626.30040651178	2946.7666015625
3628.16626421943	2953.10009765625
3630.03165042286	2950.80004882813
3631.89656534716	2950.16674804688
3633.76100921734	2950.7666015625
3635.62498225827	2953.83325195313
3637.48848469475	2943.96655273438
3639.35151675143	2944.69995117188
3641.21407865291	2938.06665039063
3643.07617062364	2950.10009765625
3644.93779288798	2952.80004882813
3646.7989456702	2950.7666015625
3648.65962919443	2930.7333984375
3650.51984368473	2946.39990234375
3652.37958936505	2943.86669921875
3654.23886645922	2951.5
3656.09767519098	2949.7333984375
3657.95601578395	2941.56665039063
3659.81388846166	2946.86669921875
3661.67129344754	2942.36669921875
3663.5282309649	2921.39990234375
3665.38470123697	2943.43334960938
3667.24070448684	2922.89990234375
3669.09624093753	2941.13330078125
3670.95131081196	2929.56665039063
3672.80591433291	2938.06665039063
3674.6600517231	2932.69995117188
3676.51372320512	2932.36669921875
3678.36692900147	2917.56665039063
3680.21966933453	2922.80004882813
3682.07194442661	2935.69995117188
3683.92375449988	2909.16674804688
3685.77509977644	2924.56665039063
3687.62598047828	2923.2333984375
3689.47639682727	2920.56665039063
3691.3263490452	2916.80004882813
3693.17583735375	2900.80004882813
3695.02486197449	2908.53344726563
