-45.2401887661565	1572.06665039063
-42.2571416371046	1571.16662597656
-39.2751473659741	1572.69995117188
-36.294205364348	1572.33337402344
-33.3143150441689	1571.69995117188
-30.3354758177508	1572.16662597656
-27.3576870977546	1573.36669921875
-24.3809482972486	1572.86669921875
-21.4052588296189	1572.23327636719
-18.4306181086421	1574.09997558594
-15.4570255484567	1573.73327636719
-12.484480563567	1574.03332519531
-9.51298256884248	1575.53332519531
-6.54253097950557	1590.06665039063
-3.57312521115564	1703.66662597656
-0.604764679752472	2104.36669921875
2.36255119837996	2369.56665039063
5.32882300654979	1969.69995117188
8.29405132772162	1642.46667480469
11.2582367444606	1583.33337402344
14.221379838993	1575.09997558594
17.1834811931863	1576.13330078125
20.1445413885255	1574.16662597656
23.1045610061495	1574.76672363281
26.0635406268193	1574.26672363281
29.0214808309505	1576.13330078125
31.9783821985772	1576.13330078125
34.9342453093885	1578.23327636719
37.889070742705	1577.46667480469
40.8428590774668	1576.96667480469
43.7956108922979	1578.5
46.7473267654063	1578.56665039063
49.6980072746767	1580.76672363281
52.6476529976064	1586.5
55.5962645113619	1606.66662597656
58.5438423927148	1673.36669921875
61.4903872181026	1876.83337402344
64.4358995635843	2364.19995117188
67.3803800048697	3305.30004882813
70.3238291172945	4845.60009765625
73.2662474758495	7117.533203125
76.2076356551565	10180.7001953125
79.1479942294767	13602.400390625
82.087323772719	16410.43359375
85.025624858416	17840.56640625
87.9628980597688	18281.099609375
90.8991439495829	18277.466796875
93.8343631003365	18298.3671875
96.7685560841253	18376.466796875
99.7017234727059	18457.400390625
102.633865837465	18375.166015625
105.564983749419	18140.666015625
108.49507777925	17850.732421875
111.424148497276	17486.30078125
114.352196473425	17193.833984375
117.27922227732	16968.93359375
120.205226478184	16820.19921875
123.130209644899	16742.80078125
126.054172346	16597.69921875
128.977115149633	16500.69921875
131.899038623609	16282.466796875
134.819943335381	16185.5
137.73982985205	15974.56640625
140.658698740338	15879.3662109375
143.576550566638	15691.7001953125
146.49338589696	15563.7333984375
149.409205296978	15438.43359375
152.324009332002	15216.099609375
155.237798566978	15040.5
158.150573566513	14887.8662109375
161.06233489485	14654.7666015625
163.973083115868	14400.06640625
166.882818793097	14222.2666015625
169.791542489729	14018.2001953125
172.699254768567	13845.900390625
175.60595619209	13761.8330078125
178.5116473224	13666.8662109375
181.416328721259	13601.6337890625
184.320000950057	13429.5
187.222664569858	13338.43359375
190.124320141336	13273.533203125
193.024968224852	13179.7001953125
195.924609380368	13146.1669921875
198.823244167539	13044.5
201.720873145623	13026.033203125
204.617496873556	12996
207.513115909906	12959.3330078125
210.407730812889	12921.8662109375
213.301342140378	12937.966796875
216.19395044987	13050.400390625
219.085556298543	13113.93359375
221.976160243188	13327.8330078125
224.865762840274	13641.8330078125
227.754364645889	14023
230.641966215796	14233.3330078125
233.528568105389	14326.2333984375
236.414170869724	14132.93359375
239.298775063472	14079.8662109375
242.182381241009	13960.900390625
245.064989956303	13946.8330078125
247.946601763011	13913
250.827217214431	13883.7998046875
253.706836863485	13803.6669921875
256.585461262776	13791.2333984375
259.463090964538	13784.533203125
262.339726520655	13816.3330078125
265.215368482684	13793.966796875
268.090017401811	13802.033203125
270.963673828854	13825.8662109375
273.83633831433	13899.033203125
276.708011408363	13951.1337890625
279.578693660757	14003.400390625
282.448385620947	14154.8662109375
285.317087838035	14330.2333984375
288.184800860754	14492.966796875
291.051525237502	14691.7001953125
293.91726151634	14969.2666015625
296.782010244956	15372.3330078125
299.645771970707	15989.599609375
302.508547240595	16672.232421875
305.370336601275	16780.732421875
308.231140599056	16111.3662109375
311.090959779906	15200.6669921875
313.949794689425	14587.6669921875
316.807645872888	14116.466796875
319.664513875216	13730.466796875
322.520399240978	13398.8330078125
325.375302514399	13105.8662109375
328.229224239362	12829.2666015625
331.082164959406	12617.3330078125
333.934125217701	12443.56640625
336.785105557106	12253.1337890625
339.63510652011	12054.06640625
342.484128648865	11877.56640625
345.332172485161	11729.6669921875
348.179238570481	11595.43359375
351.025327445927	11417.3330078125
353.870439652258	11257.5
356.714575729916	11104.3330078125
359.557736218976	11058.533203125
362.399921659154	10994.2333984375
365.241132589866	10899.7001953125
368.081369550147	10881.3662109375
370.9206330787	10907.3330078125
373.758923713884	11046.7666015625
376.596241993719	11380.099609375
379.432588455865	12277.43359375
382.267963637662	13526.2666015625
385.102368076089	13586.466796875
387.935802307795	11907.8662109375
390.76826686907	10494.533203125
393.599762295869	10000.56640625
396.430289123809	10040.5
399.259847888169	10666.2333984375
402.088439123881	12224.43359375
404.916063365514	14463.8662109375
407.742721147318	15154.466796875
410.568413003215	13318.56640625
413.393139466752	11035.1337890625
416.216901071157	9792.5
419.039698349307	9280.1669921875
421.861531833736	8980.8330078125
424.682402056651	8846.6669921875
427.502309549909	8728.8662109375
430.321254845016	8694.5
433.139238473162	8638.1337890625
435.956260965177	8508.2666015625
438.77232285156	8351.1669921875
441.587424662468	8013.93310546875
444.401566927712	7791.10009765625
447.214750176775	7524.2001953125
450.026974938794	7362.66650390625
452.83824174257	7112.10009765625
455.648551116567	6820.466796875
458.457903588894	6559
461.26629968734	6351.66650390625
464.073739939357	6251.2998046875
466.880224872035	6123.5
469.685755012153	6098.93310546875
472.49033088614	6030.2001953125
475.293953020089	5959.93310546875
478.096621939743	5955.5
480.898338170538	6025.466796875
483.699102237533	6180.56689453125
486.498914665491	6421.033203125
489.297775978795	6766.966796875
492.095686701534	7272.7998046875
494.892647357429	7945.2333984375
497.688658469877	9038.43359375
500.483720561944	10907.93359375
503.277834156342	13986.533203125
506.070999775463	19459.466796875
508.863217941361	29229.732421875
511.654489175756	47286.3984375
514.444814000016	64533.6328125
517.2341929352	64534.43359375
520.022626502005	64520.53515625
522.810115220818	64485.96484375
525.596659611673	64443.3984375
528.382260194271	64408.43359375
531.166917487996	64381.46484375
533.950632011879	56160.33203125
536.73340428462	45935.765625
539.515234824599	38845.69921875
542.296124149831	33653.765625
545.076072778037	29990.666015625
547.855081226582	27166.93359375
550.633150012498	24744.099609375
553.410279652488	22798.93359375
556.186470662915	21229.43359375
558.96172355983	19962.69921875
561.736038858928	18812.1328125
564.509417075582	17926.3671875
567.281858724831	17113.93359375
570.05336432138	16409.966796875
572.823934379622	15711.6337890625
575.593569413579	15132.06640625
578.362269936978	14618.2001953125
581.130036463186	14185.7666015625
583.896869505276	13802.06640625
586.662769575936	13503.1669921875
589.427737187587	13208.5
592.191772852261	12968.3330078125
594.954877081707	12797.400390625
597.717050387307	12611.7001953125
600.478293280132	12424.2001953125
603.238606270918	12221.2333984375
605.997989870071	12166.599609375
608.756444587674	12200.2333984375
611.51397093347	12581.2001953125
614.270569416885	13344.2333984375
617.026240546994	14215.7333984375
619.780984832579	14409.966796875
622.534802782051	14057.533203125
625.28769490353	13462.099609375
628.039661704777	12904.93359375
630.790703693254	12455.7998046875
633.540821376072	12198.1669921875
636.290015260021	12042.7333984375
639.038285851557	12003.43359375
641.785633656838	11985.3662109375
644.53205918164	11776.2666015625
647.277562931475	11495.93359375
650.022145411487	11266.7333984375
652.765807126504	11093.5
655.508548581018	10942.466796875
658.250370279212	10881.3330078125
660.991272724927	10851.93359375
663.731256421695	10731.966796875
666.470321872704	10736.2333984375
669.208469580824	10669.6669921875
671.945700048608	10611.966796875
674.682013778259	10510.3662109375
677.417411271689	10386.2333984375
680.151893030452	10230.400390625
682.885459555808	10063.1337890625
685.618111348654	9945.43359375
688.349848909595	9757.2666015625
691.080672738909	9633.7666015625
693.810583336532	9516.7001953125
696.539581202094	9398.7998046875
699.267666834878	9243.8662109375
701.994840733876	9141.900390625
704.721103397717	9014.7001953125
707.446455324753	8949.5
710.17089701297	8836.033203125
712.894428960055	8755.7666015625
715.617051663367	8660.599609375
718.338765619947	8596.2001953125
721.059571326491	8636.033203125
723.77946927941	8542.400390625
726.498459974761	8491.8330078125
729.216543908288	8475.43359375
731.933721575429	8478.2333984375
734.649993471274	8412.2001953125
737.365360090615	8396.1669921875
740.079821927902	8381.966796875
742.793379477287	8391.2666015625
745.506033232575	8331.1669921875
748.217783687274	8320.3662109375
750.928631334558	8322.400390625
753.638576667294	8321.466796875
756.347620177996	8346.2333984375
759.055762358899	8298.8330078125
761.763003701896	8297.400390625
764.469344698568	8236.966796875
767.174785840164	8193.93359375
769.879327617621	8202.3330078125
772.582970521569	8165.7666015625
775.285715042305	8249.033203125
777.98756166981	8272.1669921875
780.688510893745	8275.5
783.388563203461	8257.8330078125
786.087719087968	8246.2666015625
788.785979035992	8237.1337890625
791.483343535914	8240.599609375
794.179813075812	8234.1669921875
796.875388143434	8201.43359375
799.570069226218	8195.3662109375
802.263856811291	8237.6337890625
804.956751385454	8284.599609375
807.648753435199	8283.7998046875
810.339863446682	8348.1669921875
813.030081905767	8363.8330078125
815.719409297987	8379.466796875
818.407846108563	8354.06640625
821.0953928224	8396.1669921875
823.782049924091	8380.599609375
826.467817897908	8306.43359375
829.152697227802	8284.3662109375
831.836688397423	8224.466796875
834.519791890103	8137.533203125
837.202008188841	8015.16650390625
839.883337776345	8006.533203125
842.563781134997	7952.06689453125
845.243338746864	7893.7333984375
847.922011093711	7822.36669921875
850.599798656964	7821.533203125
853.276701917763	7768.56689453125
855.952721356905	7743.033203125
858.627857454911	7779.06689453125
861.302110691947	7769.533203125
863.975481547905	7761.033203125
866.64797050233	7790.2001953125
869.319578034484	7739.2666015625
871.990304623295	7712.36669921875
874.660150747378	7689.86669921875
877.329116885059	7707.56689453125
879.997203514329	7671.2998046875
882.664411112868	7678.56689453125
885.330740158065	7662.5
887.996191126968	7631.13330078125
890.660764496346	7676.2333984375
893.32446074263	7670.39990234375
895.987280341944	7622.93310546875
898.649223770116	7662.93310546875
901.310291502651	7613.39990234375
903.970484014752	7627.5
906.629801781296	7671.66650390625
909.288245276875	7661.033203125
911.94581497574	7716.7998046875
914.602511351862	7795.60009765625
917.258334878881	7825.83349609375
919.913286030143	7983.93310546875
922.567365278671	8188.966796875
925.22057309719	8463.93359375
927.872909958113	9090.7666015625
930.524376333534	10067.533203125
933.174972695261	11356.7333984375
935.824699514769	12915.3662109375
938.473557263243	14576.6337890625
941.121546411544	15902.099609375
943.768667430247	16747.466796875
946.414920789592	16824.966796875
949.060306959546	16645.93359375
951.704826409726	16632.166015625
954.348479609485	16561.56640625
956.991267027837	16661.56640625
959.633189133505	16731.533203125
962.274246394901	16820.466796875
964.914439280131	16890.767578125
967.553768257001	16994.666015625
970.192233792994	17035.666015625
972.829836355309	17175.232421875
975.466576410819	17174.099609375
978.102454426117	17131.93359375
980.73747086746	16993.5
983.371626200825	16716.599609375
986.004920891854	16021.7001953125
988.637355405927	14989.3330078125
991.268930208091	13546.466796875
993.899645763094	12073.033203125
996.529502535374	10966.8662109375
999.158500989077	10124.2998046875
1001.78664158804	9538.099609375
1004.41392479578	9095.099609375
1007.04035107555	8738.6669921875
1009.66592089027	8420.6337890625
1012.29063470255	8123.16650390625
1014.91449297471	7804.16650390625
1017.53749616879	7591.89990234375
1020.15964474646	7296.533203125
1022.78093916919	7092.2333984375
1025.40137989804	6853.39990234375
1028.02096739384	6609.466796875
1030.6397021171	6440.86669921875
1033.257584528	6273.93310546875
1035.87461508647	6098.2001953125
1038.49079425209	5971.033203125
1041.10612248418	5894.66650390625
1043.72060024173	5805.39990234375
1046.33422798343	5773.2333984375
1048.94700616768	5736.66650390625
1051.55893525258	5693.56689453125
1054.17001569593	5659.2666015625
1056.78024795523	5625.06689453125
1059.38963248767	5606.033203125
1061.99816975014	5601.33349609375
1064.60586019925	5569.56689453125
1067.21270429129	5548.966796875
1069.81870248227	5528.16650390625
1072.42385522787	5518.2001953125
1075.02816298352	5528.2998046875
1077.6316262043	5492.56689453125
1080.23424534501	5517.33349609375
1082.83602086017	5521.36669921875
1085.43695320399	5492.63330078125
1088.03704283036	5488.36669921875
1090.63629019293	5470.7998046875
1093.23469574496	5468.7998046875
1095.83225993951	5438.2666015625
1098.42898322928	5418.86669921875
1101.02486606671	5426.7666015625
1103.6199089039	5415.93310546875
1106.2141121927	5411.60009765625
1108.80747638464	5386
1111.40000193095	5377.466796875
1113.99168928258	5372.466796875
1116.58253889016	5357.83349609375
1119.17255120405	5376.66650390625
1121.76172667429	5354.39990234375
1124.35006575066	5319.36669921875
1126.9375688826	5295.2001953125
1129.52423651929	5272.83349609375
1132.11006910959	5298.56689453125
1134.6950671021	5258.36669921875
1137.27923094508	5264.2001953125
1139.86256108653	5256.2001953125
1142.44505797415	5206.93310546875
1145.02672205533	5209.7001953125
1147.60755377718	5205.63330078125
1150.18755358652	5182.63330078125
1152.76672192986	5171.63330078125
1155.34505925343	5157.533203125
1157.92256600317	5171.63330078125
1160.49924262472	5159.2998046875
1163.07508956343	5140.36669921875
1165.65010726433	5146.60009765625
1168.22429617222	5134.63330078125
1170.79765673155	5130.06689453125
1173.3701893865	5096.36669921875
1175.94189458096	5122.2001953125
1178.51277275854	5128.43310546875
1181.08282436252	5089.7333984375
1183.65204983592	5097.06689453125
1186.22044962147	5097.2001953125
1188.7880241616	5105.39990234375
1191.35477389845	5096.2998046875
1193.92069927386	5101.93310546875
1196.4858007294	5093.5
1199.05007870634	5064.33349609375
1201.61353364565	5096.966796875
1204.17616598803	5107.39990234375
1206.73797617386	5089.2001953125
1209.29896464328	5120.16650390625
1211.85913183609	5108
1214.41847819183	5096.466796875
1216.97700414974	5111.13330078125
1219.53471014878	5108.2001953125
1222.09159662761	5089
1224.64766402461	5080.63330078125
1227.20291277786	5063.2666015625
1229.75734332518	5097.10009765625
1232.31095610407	5085.2001953125
1234.86375155175	5052.533203125
1237.41573010517	5049.966796875
1239.96689220099	5007.39990234375
1242.51723827555	5034.2998046875
1245.06676876494	5017.966796875
1247.61548410496	5030.56689453125
1250.16338473109	5035.033203125
1252.71047107857	5012.33349609375
1255.25674358232	5010
1257.80220267699	5021.33349609375
1260.34684879693	4985.89990234375
1262.89068237622	4993.7998046875
1265.43370384866	4980.36669921875
1267.97591364773	4990.43310546875
1270.51731220666	4969.43310546875
1273.05789995838	4971
1275.59767733554	4964.43310546875
1278.1366447705	4981.2333984375
1280.67480269535	4966.13330078125
1283.21215154188	4975.56689453125
1285.74869174159	4936.16650390625
1288.28442372571	4957.63330078125
1290.8193479252	4936.533203125
1293.3534647707	4956.56689453125
1295.88677469261	4940.33349609375
1298.41927812099	4916.7666015625
1300.95097548568	4939.66650390625
1303.48186721619	4952.06689453125
1306.01195374178	4933.7333984375
1308.5412354914	4931.466796875
1311.06971289374	4945.36669921875
1313.59738637719	4928.7333984375
1316.12425636987	4932.93310546875
1318.65032329961	4942.7001953125
1321.17558759397	4943.2666015625
1323.70004968023	4915.7666015625
1326.22370998537	4946.7666015625
1328.74656893609	4938.56689453125
1331.26862695885	4946.39990234375
1333.78988447977	4959.2666015625
1336.31034192473	4941.36669921875
1338.82999971932	4960.36669921875
1341.34885828883	4919.39990234375
1343.86691805832	4955.06689453125
1346.38417945251	4938.7998046875
1348.90064289589	4941.2998046875
1351.41630881263	4949.2998046875
1353.93117762666	4959.2666015625
1356.4452497616	4953.10009765625
1358.95852564079	4940.033203125
1361.47100568733	4959.5
1363.982690324	4934.43310546875
1366.49357997333	4922.93310546875
1369.00367505754	4921.2001953125
1371.51297599862	4934.7666015625
1374.02148321822	4909.36669921875
1376.52919713777	4885.966796875
1379.03611817839	4887.83349609375
1381.54224676093	4866.7001953125
1384.04758330597	4840.60009765625
1386.55212823381	4878.36669921875
1389.05588196447	4851.86669921875
1391.55884491769	4818.16650390625
1394.06101751295	4821.7666015625
1396.56240016941	4803.06689453125
1399.06299330603	4811.033203125
1401.56279734144	4782.2998046875
1404.06181269398	4752.033203125
1406.56003978177	4753.60009765625
1409.05747902262	4757.2998046875
1411.55413083404	4752.7333984375
1414.04999563334	4734.06689453125
1416.54507383748	4748.5
1419.03936586319	4729.33349609375
1421.5328721269	4737.93310546875
1424.02559304479	4726.93310546875
1426.51752903275	4706.2001953125
1429.0086805064	4705.39990234375
1431.49904788109	4725.36669921875
1433.98863157188	4714
1436.47743199359	4702
1438.96544956074	4712.10009765625
1441.45268468757	4706.89990234375
1443.93913778808	4714.39990234375
1446.42480927597	4701.39990234375
1448.90969956468	4675.93310546875
1451.39380906737	4684.5
1453.87713819694	4663.93310546875
1456.35968736602	4670.16650390625
1458.84145698693	4645.2666015625
1461.32244747178	4628.5
1463.80265923236	4610.10009765625
1466.28209268021	4640.43310546875
1468.7607482266	4613.86669921875
1471.23862628251	4585.33349609375
1473.71572725868	4569.63330078125
1476.19205156556	4560.533203125
1478.66759961333	4581.93310546875
1481.14237181191	4571.06689453125
1483.61636857094	4549.66650390625
1486.08959029979	4512.63330078125
1488.56203740757	4520.2333984375
1491.03371030312	4523.7666015625
1493.504609395	4509.93310546875
1495.97473509153	4497.2001953125
1498.4440878007	4528.63330078125
1500.9126679303	4488.13330078125
1503.3804758878	4480.533203125
1505.84751208046	4502.2998046875
1508.31377691521	4486.66650390625
1510.77927079874	4475.16650390625
1513.24399413748	4489.16650390625
1515.70794733758	4473.56689453125
1518.17113080493	4475.533203125
1520.63354494515	4476.63330078125
1523.09519016358	4486.466796875
1525.55606686532	4472.13330078125
1528.01617545519	4466.2666015625
1530.47551633774	4457.033203125
1532.93408991725	4478.16650390625
1535.39189659775	4474
1537.84893678299	4491.13330078125
1540.30521087647	4478.86669921875
1542.7607192814	4482.2998046875
1545.21546240076	4496
1547.66944063722	4496
1550.12265439323	4514.10009765625
1552.57510407094	4526.2333984375
1555.02679007225	4513.43310546875
1557.47771279882	4534.60009765625
1559.92787265198	4522
1562.37727003288	4531.2998046875
1564.82590534234	4543.66650390625
1567.27377898094	4531.89990234375
1569.72089134901	4552.7998046875
1572.16724284659	4555.033203125
1574.61283387349	4546.56689453125
1577.05766482921	4589.2666015625
1579.50173611304	4559.43310546875
1581.94504812397	4566.466796875
1584.38760126074	4590.2666015625
1586.82939592183	4606.7666015625
1589.27043250547	4593
1591.71071140959	4606.13330078125
1594.1502330319	4592.5
1596.58899776981	4582.93310546875
1599.02700602052	4583.36669921875
1601.46425818091	4594.7333984375
1603.90075464766	4560.2666015625
1606.33649581713	4603.06689453125
1608.77148208546	4583.7998046875
1611.2057138485	4537.39990234375
1613.63919150188	4528.7001953125
1616.07191544093	4525.63330078125
1618.50388606074	4500.86669921875
1620.93510375615	4483.06689453125
1623.3655689217	4459.89990234375
1625.79528195172	4406.13330078125
1628.22424324025	4395.466796875
1630.65245318109	4394.10009765625
1633.07991216775	4344.89990234375
1635.50662059351	4331.966796875
1637.93257885141	4300.966796875
1640.35778733417	4282.2001953125
1642.78224643431	4246.966796875
1645.20595654406	4230.5
1647.62891805542	4204.16650390625
1650.05113136009	4175.2333984375
1652.47259684955	4153.66650390625
1654.89331491501	4162.10009765625
1657.31328594743	4122.533203125
1659.73251033749	4135.66650390625
1662.15098847565	4095.86669921875
1664.56872075208	4092.63330078125
1666.98570755671	4064.69995117188
1669.40194927923	4060.63330078125
1671.81744630902	4054.39990234375
1674.23219903527	4055.96655273438
1676.64620784688	4048.10009765625
1679.05947313249	4054.06665039063
1681.47199528049	4054.2666015625
1683.88377467904	4034.89990234375
1686.29481171601	4010
1688.70510677902	4016.10009765625
1691.11466025546	4009.36669921875
1693.52347253247	4012.80004882813
1695.93154399686	3992.16674804688
1698.33887503531	4004.36669921875
1700.74546603413	3998.80004882813
1703.15131737945	4002.10009765625
1705.55642945712	3986.03344726563
1707.96080265273	3967.03344726563
1710.36443735164	4000.43334960938
1712.76733393892	3970.80004882813
1715.16949279944	3977.39990234375
1717.57091431778	3956.13330078125
1719.97159887826	3971.53344726563
1722.37154686498	3964.60009765625
1724.77075866177	3978.80004882813
1727.1692346522	3970.60009765625
1729.56697521962	3956.63330078125
1731.96398074709	3948.83325195313
1734.36025161743	3933.93334960938
1736.75578821323	3952.03344726563
1739.15059091682	3937.93334960938
1741.54466011027	3937.56665039063
1743.93799617539	3938.86669921875
1746.33059949376	3918.30004882813
1748.72247044671	3923.7666015625
1751.11360941531	3922.03344726563
1753.50401678037	3928.80004882813
1755.89369292247	3918.56665039063
1758.28263822195	3899.2666015625
1760.67085305887	3873.33325195313
1763.05833781306	3907.5
1765.4450928641	3886.66674804688
1767.83111859131	3898.89990234375
1770.21641537377	3888.43334960938
1772.60098359033	3872.5
1774.98482361954	3861.93334960938
1777.36793583978	3857.89990234375
1779.75032062909	3872
1782.13197836535	3873.2666015625
1784.51290942612	3871.89990234375
1786.89311418877	3870.36669921875
1789.27259303038	3865.30004882813
1791.65134632782	3847.96655273438
1794.02937445768	3866.7666015625
1796.40667779632	3859.30004882813
1798.78325671986	3848.96655273438
1801.15911160415	3839.33325195313
1803.53424282482	3847.89990234375
1805.90865075725	3833.2333984375
1808.28233577656	3837
1810.65529825763	3828.69995117188
1813.0275385751	3851.2333984375
1815.39905710336	3813.93334960938
1817.76985421656	3830.7666015625
1820.1399302886	3837.60009765625
1822.50928569314	3831.93334960938
1824.8779208036	3813.30004882813
1827.24583599314	3826.96655273438
1829.61303163468	3822.63330078125
1831.97950810092	3817.5
1834.34526576427	3807.36669921875
1836.71030499695	3818.83325195313
1839.0746261709	3828.96655273438
1841.43822965782	3804
1843.80111582919	3797.93334960938
1846.16328505622	3790.93334960938
1848.5247377099	3803.2333984375
1850.88547416095	3790.16674804688
1853.24549477987	3777.63330078125
1855.60479993693	3774.36669921875
1857.96339000213	3779.63330078125
1860.32126534522	3786.89990234375
1862.67842633576	3788.10009765625
1865.03487334299	3788.16674804688
1867.39060673601	3765.46655273438
1869.74562688358	3771.33325195313
1872.09993415429	3767.7333984375
1874.45352891644	3784.36669921875
1876.80641153813	3759.93334960938
1879.15858238719	3743.63330078125
1881.51004183123	3765.36669921875
1883.8607902376	3762.7333984375
1886.21082797343	3731.66674804688
1888.5601554056	3746.30004882813
1890.90877290074	3743.96655273438
1893.25668082527	3728.2333984375
1895.60387954535	3742.7333984375
1897.9503694269	3742.53344726563
1900.29615083561	3744.03344726563
1902.64122413693	3733.2666015625
1904.98558969606	3734.7333984375
1907.32924787797	3740.89990234375
1909.67219904742	3730.2333984375
1912.01444356887	3730.2666015625
1914.3559818066	3725.56665039063
1916.69681412463	3728.33325195313
1919.03694088673	3743.10009765625
1921.37636245645	3732.2666015625
1923.71507919711	3741.93334960938
1926.05309147176	3731.19995117188
1928.39039964327	3759.43334960938
1930.72700407421	3750.7333984375
1933.06290512695	3748.2333984375
1935.39810316362	3735.7666015625
1937.73259854611	3745.19995117188
1940.06639163608	3728.36669921875
1942.39948279493	3745.7333984375
1944.73187238387	3743.30004882813
1947.06356076384	3741.86669921875
1949.39454829555	3727.80004882813
1951.72483533948	3731.86669921875
1954.05442225588	3734.39990234375
1956.38330940476	3719.60009765625
1958.71149714589	3734.2666015625
1961.03898583882	3723.16674804688
1963.36577584285	3730.56665039063
1965.69186751706	3739.2333984375
1968.01726122028	3706.53344726563
1970.34195731113	3697.80004882813
1972.66595614798	3704.16674804688
1974.98925808898	3686.86669921875
1977.31186349201	3718.2333984375
1979.63377271478	3699.2666015625
1981.95498611472	3710.2333984375
1984.27550404903	3696.89990234375
1986.59532687469	3691.36669921875
1988.91445494847	3681.03344726563
1991.23288862685	3675.53344726563
1993.55062826614	3681.53344726563
1995.86767422238	3662.06665039063
1998.18402685139	3668.43334960938
2000.49968650876	3683.2333984375
2002.81465354985	3665
2005.12892832979	3680.13330078125
2007.44251120347	3648.39990234375
2009.75540252556	3674.89990234375
2012.06760265049	3659.03344726563
2014.37911193249	3673.39990234375
2016.6899307255	3660
2019.0000593833	3656.69995117188
2021.30949825938	3655.7333984375
2023.61824770704	3654.39990234375
2025.92630807934	3647.89990234375
2028.23367972911	3647.60009765625
2030.54036300895	3640.66674804688
2032.84635827122	3652.5
2035.15166586809	3657.16674804688
2037.45628615144	3671.16674804688
2039.760219473	3681.53344726563
2042.06346618419	3671.2333984375
2044.36602663625	3661.2333984375
2046.66790118021	3668.06665039063
2048.96909016682	3664.66674804688
2051.26959394663	3668.63330078125
2053.56941286997	3649.60009765625
2055.86854728693	3673.16674804688
2058.16699754739	3665.30004882813
2060.46476400098	3669.2666015625
2062.76184699713	3667.66674804688
2065.058246885	3658.7333984375
2067.35396401358	3663.96655273438
2069.64899873161	3663.10009765625
2071.94335138758	3689.43334960938
2074.2370223298	3675.63330078125
2076.53001190631	3648.33325195313
2078.82232046496	3651.86669921875
2081.11394835335	3667.10009765625
2083.40489591888	3640.30004882813
2085.6951635087	3656.36669921875
2087.98475146976	3659.39990234375
2090.27366014875	3627.7666015625
2092.56188989219	3644.83325195313
2094.84944104631	3644.93334960938
2097.13631395718	3650.56665039063
2099.4225089706	3627.7666015625
2101.70802643217	3641.69995117188
2103.99286668728	3638.93334960938
2106.27703008104	3622.7333984375
2108.5605169584	3625.69995117188
2110.84332766406	3639.63330078125
2113.1254625425	3623.69995117188
2115.40692193797	3622.33325195313
2117.68770619451	3606.83325195313
2119.96781565593	3617.33325195313
2122.24725066583	3617.39990234375
2124.52601156757	3630.39990234375
2126.80409870431	3622.63330078125
2129.08151241896	3614.96655273438
2131.35825305425	3606.43334960938
2133.63432095264	3622.19995117188
2135.90971645641	3601.53344726563
2138.1844399076	3630.80004882813
2140.45849164803	3612.03344726563
2142.73187201931	3610.13330078125
2145.00458136282	3627.7333984375
2147.27662001972	3623.66674804688
2149.54798833095	3620.2666015625
2151.81868663725	3617.2666015625
2154.0887152791	3632.86669921875
2156.3580745968	3613.39990234375
2158.62676493042	3619.46655273438
2160.89478661981	3623
2163.16214000458	3616.06665039063
2165.42882542414	3607
2167.69484321771	3625.13330078125
2169.96019372424	3623.19995117188
2172.2248772825	3634.93334960938
2174.48889423101	3632.56665039063
2176.7522449081	3624
2179.01492965187	3629.83325195313
2181.27694880022	3623.39990234375
2183.53830269079	3617.03344726563
2185.79899166106	3622.39990234375
2188.05901604825	3622.19995117188
2190.31837618938	3609.36669921875
2192.57707242125	3614.53344726563
2194.83510508044	3611.36669921875
2197.09247450333	3601.30004882813
2199.34918102607	3613.80004882813
2201.60522498459	3611.2333984375
2203.86060671463	3597.16674804688
2206.11532655168	3598.60009765625
2208.36938483104	3587.16674804688
2210.62278188778	3599
2212.87551805676	3592.2333984375
2215.12759367264	3586.43334960938
2217.37900906984	3595.46655273438
2219.62976458259	3593.63330078125
2221.87986054487	3574.7333984375
2224.1292972905	3596.93334960938
2226.37807515303	3589.66674804688
2228.62619446583	3604.60009765625
2230.87365556206	3584.2666015625
2233.12045877465	3596.03344726563
2235.36660443631	3577.63330078125
2237.61209287956	3587.03344726563
2239.8569244367	3581.43334960938
2242.10109943981	3591.46655273438
2244.34461822076	3579.86669921875
2246.58748111121	3588.33325195313
2248.82968844261	3590.36669921875
2251.07124054618	3585.2333984375
2253.31213775297	3582.30004882813
2255.55238039377	3584.2333984375
2257.79196879919	3602.5
2260.03090329962	3588.43334960938
2262.26918422523	3591.69995117188
2264.50681190599	3600.89990234375
2266.74378667167	3571.96655273438
2268.98010885179	3599.13330078125
2271.2157787757	3597.06665039063
2273.45079677254	3577.53344726563
2275.6851631712	3591.93334960938
2277.9188783004	3592.56665039063
2280.15194248863	3596.89990234375
2282.38435606418	3592.5
2284.61611935512	3596
2286.84723268932	3595.66674804688
2289.07769639444	3581.7666015625
2291.30751079794	3593.16674804688
2293.53667622705	3579.06665039063
2295.76519300879	3600.03344726563
2297.99306147001	3614.86669921875
2300.22028193732	3595.19995117188
2302.44685473711	3591.06665039063
2304.6727801956	3589.13330078125
2306.89805863878	3592.89990234375
2309.12269039242	3597.53344726563
2311.34667578211	3591.43334960938
2313.57001513323	3588.66674804688
2315.79270877092	3588.66674804688
2318.01475702017	3595.83325195313
2320.2361602057	3603.63330078125
2322.45691865206	3598.10009765625
2324.6770326836	3590.66674804688
2326.89650262444	3608.89990234375
2329.11532879851	3574.93334960938
2331.33351152953	3590.06665039063
2333.55105114102	3586.36669921875
2335.76794795629	3592.19995117188
2337.98420229842	3584.56665039063
2340.19981449035	3577.80004882813
2342.41478485473	3583.7333984375
2344.62911371408	3593.93334960938
2346.84280139066	3564.36669921875
2349.05584820658	3596.5
2351.26825448369	3581.53344726563
2353.48002054368	3610.63330078125
2355.691146708	3598.03344726563
2357.90163329792	3589.63330078125
2360.11148063452	3589.10009765625
2362.32068903863	3573.46655273438
2364.52925883092	3588.96655273438
2366.73719033183	3583.53344726563
2368.94448386163	3581.19995117188
2371.15113974034	3595.30004882813
2373.35715828782	3581.2666015625
2375.5625398237	3596.5
2377.76728466743	3595.96655273438
2379.97139313824	3604.96655273438
2382.17486555516	3605.86669921875
2384.37770223703	3593.36669921875
2386.57990350247	3588
2388.78146966994	3593.36669921875
2390.98240105763	3615.16674804688
2393.18269798359	3605.66674804688
2395.38236076565	3602.19995117188
2397.58138972143	3607.56665039063
2399.77978516836	3601.60009765625
2401.97754742366	3598.43334960938
2404.17467680435	3590.86669921875
2406.37117362728	3601.89990234375
2408.56703820905	3623.7333984375
2410.7622708661	3597.33325195313
2412.95687191466	3608.56665039063
2415.15084167074	3615.33325195313
2417.34418045018	3625.7333984375
2419.53688856861	3616.13330078125
2421.72896634147	3621.03344726563
2423.92041408397	3600.36669921875
2426.11123211117	3623.63330078125
2428.30142073788	3618.53344726563
2430.49098027875	3603.39990234375
2432.67991104822	3620.03344726563
2434.86821336053	3603.89990234375
2437.05588752972	3622.93334960938
2439.24293386965	3616.39990234375
2441.42935269395	3622.66674804688
2443.61514431608	3616.33325195313
2445.80030904931	3612.46655273438
2447.98484720668	3607.7666015625
2450.16875910105	3633.16674804688
2452.3520450451	3610.43334960938
2454.53470535129	3635.43334960938
2456.7167403319	3603.2666015625
2458.898150299	3637.46655273438
2461.07893556448	3635.80004882813
2463.25909644001	3612.10009765625
2465.4386332371	3629.5
2467.61754626704	3616.89990234375
2469.79583584091	3623.36669921875
2471.97350226965	3637.86669921875
2474.15054586395	3619.13330078125
2476.32696693433	3622.16674804688
2478.50276579111	3630.66674804688
2480.67794274441	3632.30004882813
2482.85249810418	3637.7666015625
2485.02643218015	3629.7333984375
2487.19974528187	3647.93334960938
2489.37243771868	3637.13330078125
2491.54450979976	3628.66674804688
2493.71596183406	3641.19995117188
2495.88679413036	3643.93334960938
2498.05700699723	3625.5
2500.22660074307	3638.2333984375
2502.39557567606	3638.56665039063
2504.56393210422	3652.89990234375
2506.73167033534	3645.93334960938
2508.89879067706	3643.56665039063
2511.06529343678	3640.93334960938
2513.23117892175	3655.03344726563
2515.39644743903	3634.39990234375
2517.56109929543	3658.66674804688
2519.72513479764	3632.36669921875
2521.88855425212	3630.46655273438
2524.05135796515	3656.80004882813
2526.21354624281	3649.89990234375
2528.37511939102	3650.30004882813
2530.53607771546	3634.53344726563
2532.69642152166	3653.10009765625
2534.85615111494	3656.5
2537.01526680044	3648.66674804688
2539.17376888311	3654.69995117188
2541.3316576677	3652.7666015625
2543.48893345878	3681.53344726563
2545.64559656073	3668.10009765625
2547.80164727774	3665.06665039063
2549.95708591381	3665.96655273438
2552.11191277276	3660.2333984375
2554.2661281582	3641.13330078125
2556.41973237357	3668.7666015625
2558.57272572212	3661.93334960938
2560.72510850691	3678.2333984375
2562.8768810308	3676.53344726563
2565.02804359649	3683.2666015625
2567.17859650646	3695.03344726563
2569.32854006303	3672.39990234375
2571.47787456831	3679.5
2573.62660032425	3690.80004882813
2575.77471763258	3711.2333984375
2577.92222679487	3695.86669921875
2580.0691281125	3683.5
2582.21542188663	3691.7333984375
2584.3611084183	3710.69995117188
2586.5061880083	3714.13330078125
2588.65066095727	3711.06665039063
2590.79452756565	3714.16674804688
2592.9377881337	3701.19995117188
2595.08044296149	3698.33325195313
2597.22249234891	3703.89990234375
2599.36393659566	3718.03344726563
2601.50477600126	3712.53344726563
2603.64501086504	3705.56665039063
2605.78464148615	3702.43334960938
2607.92366816356	3721.69995117188
2610.06209119605	3710.80004882813
2612.1999108822	3726.19995117188
2614.33712752044	3702.10009765625
2616.47374140899	3725.80004882813
2618.60975284589	3725.80004882813
2620.74516212901	3732.13330078125
2622.87996955602	3719.46655273438
2625.01417542443	3734.2333984375
2627.14778003154	3743.7333984375
2629.28078367448	3742.2666015625
2631.41318665019	3733.56665039063
2633.54498925545	3733.10009765625
2635.67619178683	3744.33325195313
2637.80679454074	3732.53344726563
2639.93679781339	3732.56665039063
2642.06620190081	3730.10009765625
2644.19500709887	3746.06665039063
2646.32321370324	3756.60009765625
2648.4508220094	3732.60009765625
2650.57783231268	3769.89990234375
2652.7042449082	3750.7666015625
2654.8300600909	3749.63330078125
2656.95527815557	3778.89990234375
2659.07989939677	3740.7666015625
2661.20392410894	3761.30004882813
2663.32735258629	3775.86669921875
2665.45018512287	3777.80004882813
2667.57242201254	3766.66674804688
2669.69406354901	3773.03344726563
2671.81511002577	3773.69995117188
2673.93556173616	3768.83325195313
2676.05541897333	3780.13330078125
2678.17468203024	3790.03344726563
2680.2933511997	3783.10009765625
2682.41142677431	3786.69995117188
2684.52890904651	3798.2666015625
2686.64579830858	3792.5
2688.76209485256	3793.19995117188
2690.87779897038	3794.53344726563
2692.99291095376	3805.13330078125
2695.10743109424	3801.93334960938
2697.22135968318	3792.13330078125
2699.33469701179	3808.36669921875
2701.44744337108	3816.89990234375
2703.55959905187	3818.83325195313
2705.67116434485	3815.19995117188
2707.78213954048	3813.06665039063
2709.89252492907	3805.69995117188
2712.00232080076	3802.7666015625
2714.1115274455	3811.03344726563
2716.22014515307	3815.13330078125
2718.32817421306	3814.7333984375
2720.43561491492	3825.63330078125
2722.54246754789	3820.10009765625
2724.64873240104	3808.5
2726.75440976329	3801.53344726563
2728.85949992335	3811.43334960938
2730.96400316978	3799.2333984375
2733.06791979094	3809.5
2735.17125007505	3800.60009765625
2737.27399431013	3811.96655273438
2739.37615278404	3817.93334960938
2741.47772578445	3806.53344726563
2743.57871359887	3799.89990234375
2745.67911651463	3829.5
2747.7789348189	3837.33325195313
2749.87816879864	3823.46655273438
2751.97681874068	3817.03344726563
2754.07488493166	3829.96655273438
2756.17236765804	3833.13330078125
2758.26926720611	3833.13330078125
2760.36558386199	3825.03344726563
2762.46131791164	3837.86669921875
2764.55646964082	3817.16674804688
2766.65103933514	3813.63330078125
2768.74502728003	3829.83325195313
2770.83843376075	3849.66674804688
2772.93125906238	3825.19995117188
2775.02350346986	3847.66674804688
2777.11516726792	3852.13330078125
2779.20625074112	3846
2781.29675417389	3821.93334960938
2783.38667785045	3837.2666015625
2785.47602205485	3846
2787.564787071	3835.60009765625
2789.65297318262	3847.89990234375
2791.74058067325	3848.89990234375
2793.82760982627	3858.66674804688
2795.9140609249	3861.7333984375
2797.99993425218	3858.89990234375
2800.08523009097	3882.2666015625
2802.16994872399	3833.93334960938
2804.25409043376	3856.80004882813
2806.33765550265	3855.80004882813
2808.42064421285	3852.33325195313
2810.5030568464	3863.39990234375
2812.58489368514	3859.60009765625
2814.66615501076	3875.36669921875
2816.7468411048	3877.06665039063
2818.8269522486	3864.80004882813
2820.90648872334	3894.19995117188
2822.98545081005	3853.03344726563
2825.06383878958	3874.16674804688
2827.1416529426	3856.43334960938
2829.21889354963	3873.19995117188
2831.29556089103	3860.2333984375
2833.37165524697	3875.80004882813
2835.44717689746	3882.19995117188
2837.52212612235	3897.7333984375
2839.59650320133	3867.39990234375
2841.67030841392	3867.36669921875
2843.74354203945	3873.86669921875
2845.81620435711	3870.2333984375
2847.88829564593	3880.30004882813
2849.95981618474	3884.46655273438
2852.03076625224	3892.03344726563
2854.10114612695	3885.16674804688
2856.17095608722	3872.7333984375
2858.24019641124	3892
2860.30886737704	3883.39990234375
2862.37696926247	3852.83325195313
2864.44450234525	3864.93334960938
2866.51146690289	3877.19995117188
2868.57786321276	3893.53344726563
2870.64369155207	3877.7333984375
2872.70895219786	3892.93334960938
2874.77364542701	3912.7333984375
2876.83777151622	3893.13330078125
2878.90133074205	3904.53344726563
2880.96432338087	3894.7333984375
2883.02674970892	3894.30004882813
2885.08861000225	3893.2333984375
2887.14990453676	3888
2889.21063358818	3911.03344726563
2891.27079743209	3888.30004882813
2893.33039634389	3913.5
2895.38943059883	3871.03344726563
2897.447900472	3892.86669921875
2899.50580623832	3887.2666015625
2901.56314817254	3888.10009765625
2903.61992654928	3889.19995117188
2905.67614164298	3901.03344726563
2907.73179372789	3919.2333984375
2909.78688307816	3921.80004882813
2911.84140996772	3915
2913.89537467038	3907.06665039063
2915.94877745976	3894.93334960938
2918.00161860935	3900.89990234375
2920.05389839246	3902.7666015625
2922.10561708223	3903.60009765625
2924.15677495167	3901.63330078125
2926.20737227361	3916.7333984375
2928.25740932072	3927.53344726563
2930.30688636552	3916.96655273438
2932.35580368036	3913.2666015625
2934.40416153743	3916.2333984375
2936.45196020879	3898.96655273438
2938.49919996629	3898.83325195313
2940.54588108167	3915.89990234375
2942.59200382649	3906
2944.63756847214	3916.46655273438
2946.68257528988	3911.06665039063
2948.72702455079	3899.80004882813
2950.7709165258	3893.39990234375
2952.81425148567	3920.30004882813
2954.85702970103	3924.86669921875
2956.89925144233	3916.86669921875
2958.94091697988	3914.36669921875
2960.9820265838	3893.06665039063
2963.02258052408	3899.80004882813
2965.06257907056	3906.36669921875
2967.1020224929	3914.30004882813
2969.14091106062	3890.96655273438
2971.17924504309	3919.06665039063
2973.21702470949	3929.10009765625
2975.25425032888	3907.53344726563
2977.29092217015	3920.53344726563
2979.32704050203	3898.93334960938
2981.36260559311	3906.7666015625
2983.3976177118	3908
2985.43207712638	3917.43334960938
2987.46598410496	3897.10009765625
2989.4993389155	3885
2991.5321418258	3916.36669921875
2993.56439310352	3915.96655273438
2995.59609301614	3914.13330078125
2997.62724183102	3904.33325195313
2999.65783981532	3893.69995117188
3001.6878872361	3923.2666015625
3003.71738436023	3893.80004882813
3005.74633145443	3893.16674804688
3007.77472878527	3929.56665039063
3009.80257661918	3906.69995117188
3011.82987522242	3924.33325195313
3013.85662486111	3911.80004882813
3015.88282580119	3903
3017.90847830848	3893.86669921875
3019.93358264864	3925.7666015625
3021.95813908716	3918.03344726563
3023.9821478894	3908.69995117188
3026.00560932055	3910
3028.02852364566	3913.36669921875
3030.05089112962	3921.06665039063
3032.07271203718	3886.39990234375
3034.09398663292	3903.53344726563
3036.11471518128	3900.10009765625
3038.13489794656	3914.06665039063
3040.15453519289	3918.2333984375
3042.17362718426	3912.7666015625
3044.1921741845	3916.2333984375
3046.2101764573	3913.69995117188
3048.22763426619	3917.03344726563
3050.24454787457	3908.80004882813
3052.26091754566	3909.06665039063
3054.27674354254	3904.83325195313
3056.29202612816	3912.53344726563
3058.3067655653	3894.43334960938
3060.32096211659	3907.39990234375
3062.33461604452	3907.03344726563
3064.34772761144	3920.33325195313
3066.36029707952	3931.83325195313
3068.37232471081	3913.7333984375
3070.3838107672	3919.96655273438
3072.39475551043	3918.86669921875
3074.40515920209	3912.46655273438
3076.41502210364	3919.13330078125
3078.42434447637	3909.39990234375
3080.43312658143	3905.03344726563
3082.44136867982	3923.56665039063
3084.44907103239	3931.66674804688
3086.45623389987	3910.66674804688
3088.4628575428	3917.2333984375
3090.4689422216	3935.46655273438
3092.47448819653	3929.36669921875
3094.47949572772	3915.56665039063
3096.48396507513	3935.86669921875
3098.48789649859	3913
3100.49129025779	3926.53344726563
3102.49414661225	3912.06665039063
3104.49646582136	3923.46655273438
3106.49824814437	3916.93334960938
3108.49949384037	3906.16674804688
3110.50020316831	3917.86669921875
3112.500376387	3925.43334960938
3114.50001375509	3900.33325195313
3116.4991155311	3900.7333984375
3118.4976819734	3912.5
3120.49571334021	3899.93334960938
3122.49320988962	3919.89990234375
3124.49017187955	3910.56665039063
3126.48659956781	3917.39990234375
3128.48249321203	3905.69995117188
3130.47785306973	3902.39990234375
3132.47267939825	3904.89990234375
3134.46697245482	3908.53344726563
3136.46073249651	3910.5
3138.45395978023	3895.63330078125
3140.44665456279	3920.10009765625
3142.43881710082	3906.66674804688
3144.43044765083	3886.5
3146.42154646916	3905.93334960938
3148.41211381202	3902.30004882813
3150.4021499355	3905.56665039063
3152.39165509552	3906.60009765625
3154.38062954786	3914.2333984375
3156.36907354817	3908
3158.35698735195	3886.36669921875
3160.34437121457	3909.16674804688
3162.33122539124	3911.10009765625
3164.31755013704	3912.83325195313
3166.3033457069	3905.5
3168.28861235562	3891.7666015625
3170.27335033786	3913.80004882813
3172.25755990813	3879.46655273438
3174.2412413208	3903.33325195313
3176.22439483009	3918.89990234375
3178.20702069011	3897.66674804688
3180.18911915481	3893.19995117188
3182.17069047799	3913.30004882813
3184.15173491334	3886.80004882813
3186.13225271437	3893.43334960938
3188.11224413448	3921.93334960938
3190.09170942692	3906.5
3192.07064884482	3889.96655273438
3194.04906264114	3915.89990234375
3196.02695106871	3893.7666015625
3198.00431438023	3874.93334960938
3199.98115282827	3894.66674804688
3201.95746666524	3914.19995117188
3203.93325614341	3877.96655273438
3205.90852151494	3871.13330078125
3207.88326303182	3880.13330078125
3209.85748094592	3877.43334960938
3211.83117550897	3885.43334960938
3213.80434697256	3905.39990234375
3215.77699558815	3887.30004882813
3217.74912160705	3877.33325195313
3219.72072528044	3863.89990234375
3221.69180685935	3900.19995117188
3223.6623665947	3888.53344726563
3225.63240473726	3884.53344726563
3227.60192153764	3899.10009765625
3229.57091724636	3878.2333984375
3231.53939211376	3885.43334960938
3233.50734639007	3873.06665039063
3235.47478032538	3888.5
3237.44169416964	3887.56665039063
3239.40808817265	3883.2666015625
3241.3739625841	3901.46655273438
3243.33931765354	3868.19995117188
3245.30415363038	3883.39990234375
3247.26847076388	3884.53344726563
3249.23226930318	3858.36669921875
3251.1955494973	3889.16674804688
3253.15831159509	3885.46655273438
3255.1205558453	3886.13330078125
3257.08228249652	3903.13330078125
3259.04349179722	3887.83325195313
3261.00418399574	3893.63330078125
3262.96435934026	3908.7333984375
3264.92401807885	3912.03344726563
3266.88316045946	3887.96655273438
3268.84178672986	3887.46655273438
3270.79989713773	3911.43334960938
3272.7574919306	3883.7333984375
3274.71457135587	3880.7666015625
3276.6711356608	3890.60009765625
3278.62718509252	3894.33325195313
3280.58271989803	3901.63330078125
3282.53774032421	3879.53344726563
3284.49224661778	3879.60009765625
3286.44623902535	3901.7666015625
3288.39971779339	3897.5
3290.35268316824	3901.80004882813
3292.30513539611	3879.30004882813
3294.25707472307	3896.53344726563
3296.20850139507	3860.36669921875
3298.15941565793	3889.89990234375
3300.10981775731	3896.7333984375
3302.05970793879	3889.56665039063
3304.00908644778	3873.63330078125
3305.95795352955	3882.19995117188
3307.9063094293	3898.93334960938
3309.85415439202	3893.06665039063
3311.80148866264	3892.06665039063
3313.74831248591	3892.19995117188
3315.69462610647	3896.2333984375
3317.64042976884	3893.89990234375
3319.58572371739	3886.30004882813
3321.53050819639	3882.93334960938
3323.47478344994	3906.46655273438
3325.41854972204	3901.33325195313
3327.36180725656	3894.93334960938
3329.30455629722	3897.7666015625
3331.24679708763	3914.7333984375
3333.18852987128	3902.19995117188
3335.12975489151	3906.63330078125
3337.07047239154	3894.86669921875
3339.01068261447	3887.30004882813
3340.95038580325	3896.60009765625
3342.88958220072	3890.2666015625
3344.82827204961	3915.83325195313
3346.76645559248	3908.96655273438
3348.70413307179	3905
3350.64130472987	3919.39990234375
3352.57797080891	3925.2666015625
3354.51413155099	3921.86669921875
3356.44978719807	3917.19995117188
3358.38493799195	3906.36669921875
3360.31958417434	3895.7333984375
3362.25372598679	3930
3364.18736367075	3915.36669921875
3366.12049746753	3914.2666015625
3368.05312761833	3913.36669921875
3369.9852543642	3918.66674804688
3371.91687794609	3907.83325195313
3373.8479986048	3906.80004882813
3375.77861658103	3907.39990234375
3377.70873211532	3921.7666015625
3379.63834544813	3925.30004882813
3381.56745681977	3917.83325195313
3383.49606647041	3904.83325195313
3385.42417464013	3914.5
3387.35178156885	3907.36669921875
3389.27888749641	3912.43334960938
3391.20549266247	3903.36669921875
3393.13159730662	3913.10009765625
3395.05720166829	3925.66674804688
3396.9823059868	3917.16674804688
3398.90691050135	3921.80004882813
3400.83101545101	3922.39990234375
3402.75462107473	3894.80004882813
3404.67772761132	3916.93334960938
3406.60033529949	3943.7333984375
3408.52244437783	3936.60009765625
3410.44405508479	3928.96655273438
3412.3651676587	3925.86669921875
3414.28578233777	3932.86669921875
3416.2058993601	3928.63330078125
3418.12551896366	3934.2666015625
3420.04464138627	3923.83325195313
3421.96326686569	3931.39990234375
3423.88139563949	3946.93334960938
3425.79902794517	3914.06665039063
3427.71616402009	3954.96655273438
3429.63280410148	3946
3431.54894842645	3950.2333984375
3433.464597232	3939.06665039063
3435.37975075503	3922.46655273438
3437.29440923226	3966.69995117188
3439.20857290035	3956.5
3441.12224199579	3949.03344726563
3443.035416755	3942.96655273438
3444.94809741424	3956.86669921875
3446.86028420966	3987.10009765625
3448.7719773773	3973.96655273438
3450.68317715308	3985.96655273438
3452.59388377278	3966.06665039063
3454.50409747209	3975.2333984375
3456.41381848656	4003.16674804688
3458.32304705162	4003.66674804688
3460.2317834026	3995.93334960938
3462.1400277747	4032.13330078125
3464.047780403	4013.43334960938
3465.95504152246	4003.03344726563
3467.86181136793	4007.89990234375
3469.76809017412	4010
3471.67387817566	4016.63330078125
3473.57917560703	4015.69995117188
3475.4839827026	4006.10009765625
3477.38829969664	4035.83325195313
3479.29212682326	4036.06665039063
3481.19546431651	4011.33325195313
3483.09831241027	4025.60009765625
3485.00067133835	4003.93334960938
3486.9025413344	4010.5
3488.80392263197	4039.2333984375
3490.70481546451	4041.60009765625
3492.60522006534	4033.46655273438
3494.50513666765	4054.43334960938
3496.40456550454	4005.86669921875
3498.30350680898	4025.30004882813
3500.20196081382	4047.7666015625
3502.0999277518	4034.33325195313
3503.99740785554	4028.36669921875
3505.89440135756	4049.2333984375
3507.79090849025	4043.39990234375
3509.68692948589	4040.46655273438
3511.58246457663	4049.7333984375
3513.47751399454	4046.46655273438
3515.37207797153	4040.89990234375
3517.26615673944	4062.13330078125
3519.15975052996	4054.19995117188
3521.05285957469	4074.66674804688
3522.9454841051	4074.36669921875
3524.83762435255	4064.43334960938
3526.7292805483	4056.06665039063
3528.62045292348	4093.10009765625
3530.5111417091	4081.33325195313
3532.40134713609	4081.33325195313
3534.29106943522	4101.60009765625
3536.18030883718	4090.80004882813
3538.06906557255	4071.2666015625
3539.95733987177	4104.56689453125
3541.84513196519	4115.86669921875
3543.73244208305	4120.033203125
3545.61927045544	4130.533203125
3547.5056173124	4131.2333984375
3549.39148288379	4144.466796875
3551.27686739942	4114.36669921875
3553.16177108894	4147.33349609375
3555.04619418191	4134.966796875
3556.93013690779	4154.56689453125
3558.8135994959	4158.5
3560.69658217547	4165.7998046875
3562.57908517561	4186.60009765625
3564.46110872532	4153.7998046875
3566.3426530535	4172.89990234375
3568.22371838891	4199.033203125
3570.10430496024	4174.7998046875
3571.98441299604	4191.43310546875
3573.86404272476	4186.033203125
3575.74319437474	4197.7666015625
3577.62186817419	4207.56689453125
3579.50006435126	4215.86669921875
3581.37778313393	4219.06689453125
3583.25502475011	4236.33349609375
3585.1317894276	4225.2001953125
3587.00807739406	4232.33349609375
3588.88388887708	4232.7333984375
3590.7592241041	4219.7666015625
3592.6340833025	4220.7666015625
3594.50846669951	4245.36669921875
3596.38237452226	4224.93310546875
3598.25580699778	4232.5
3600.128764353	4240.56689453125
3602.00124681473	4254.93310546875
3603.87325460965	4242.10009765625
3605.74478796438	4243.33349609375
3607.6158471054	4261.39990234375
3609.48643225908	4265.60009765625
3611.35654365171	4264.2333984375
3613.22618150943	4278.60009765625
3615.09534605832	4313.2001953125
3616.96403752432	4283.7666015625
3618.83225613328	4304.7666015625
3620.70000211093	4303.10009765625
3622.56727568289	4308.7333984375
3624.43407707471	4310.60009765625
3626.30040651178	4329.466796875
3628.16626421943	4310.966796875
3630.03165042286	4320.39990234375
3631.89656534716	4330.7998046875
3633.76100921734	4353.2333984375
3635.62498225827	4366.7666015625
3637.48848469475	4370.06689453125
3639.35151675143	4359.39990234375
3641.21407865291	4390.7001953125
3643.07617062364	4378.7333984375
3644.93779288798	4380.93310546875
3646.7989456702	4374.86669921875
3648.65962919443	4394.2001953125
3650.51984368473	4396
3652.37958936505	4399.06689453125
3654.23886645922	4419
3656.09767519098	4421.2333984375
3657.95601578395	4433.2998046875
3659.81388846166	4417.39990234375
3661.67129344754	4460.39990234375
3663.5282309649	4468.33349609375
3665.38470123697	4475.63330078125
3667.24070448684	4437.89990234375
3669.09624093753	4460.06689453125
3670.95131081196	4470.33349609375
3672.80591433291	4472.06689453125
3674.6600517231	4464.2998046875
3676.51372320512	4510.7998046875
3678.36692900147	4502.2998046875
3680.21966933453	4509.39990234375
3682.07194442661	4513.5
3683.92375449988	4525.06689453125
3685.77509977644	4522.56689453125
3687.62598047828	4534.2001953125
3689.47639682727	4534.63330078125
3691.3263490452	4526.2666015625
3693.17583735375	4555.56689453125
3695.02486197449	4556.2333984375
