-45.2401887661565	1568.90002441406
-42.2571416371046	1571.53332519531
-39.2751473659741	1569.36669921875
-36.294205364348	1570.5
-33.3143150441689	1570.36669921875
-30.3354758177508	1570.03332519531
-27.3576870977546	1569.63330078125
-24.3809482972486	1569.86669921875
-21.4052588296189	1568.69995117188
-18.4306181086421	1570.5
-15.4570255484567	1571.30004882813
-12.484480563567	1569.93334960938
-9.51298256884248	1570.63330078125
-6.54253097950557	1575.66662597656
-3.57312521115564	1616
-0.604764679752472	1765.53332519531
2.36255119837996	1867.63330078125
5.32882300654979	1719.83337402344
8.29405132772162	1597.03332519531
11.2582367444606	1572.86669921875
14.221379838993	1571.33337402344
17.1834811931863	1570.13330078125
20.1445413885255	1570.56665039063
23.1045610061495	1570.76672363281
26.0635406268193	1569.90002441406
29.0214808309505	1571.86669921875
31.9783821985772	1570.09997558594
34.9342453093885	1569.90002441406
37.889070742705	1571.16662597656
40.8428590774668	1572.36669921875
43.7956108922979	1570.26672363281
46.7473267654063	1572.90002441406
49.6980072746767	1572.83337402344
52.6476529976064	1571.23327636719
55.5962645113619	1576.90002441406
58.5438423927148	1591.23327636719
61.4903872181026	1629.86669921875
64.4358995635843	1734.46667480469
67.3803800048697	1941.93334960938
70.3238291172945	2291.06665039063
73.2662474758495	2804.93334960938
76.2076356551565	3530.80004882813
79.1479942294767	4381.10009765625
82.087323772719	5117.93310546875
85.025624858416	5556.033203125
87.9628980597688	5683.43310546875
90.8991439495829	5736.2333984375
93.8343631003365	5788.39990234375
96.7685560841253	5859.13330078125
99.7017234727059	5912.86669921875
102.633865837465	5916.60009765625
105.564983749419	5922.10009765625
108.49507777925	5874.7998046875
111.424148497276	5794.533203125
114.352196473425	5755.13330078125
117.27922227732	5711.2333984375
120.205226478184	5691.7001953125
123.130209644899	5728.7998046875
126.054172346	5693.36669921875
128.977115149633	5676.7001953125
131.899038623609	5631.533203125
134.819943335381	5659.10009765625
137.73982985205	5633.93310546875
140.658698740338	5584.86669921875
143.576550566638	5582.7333984375
146.49338589696	5522.10009765625
149.409205296978	5494.2001953125
152.324009332002	5463.60009765625
155.237798566978	5434
158.150573566513	5398.63330078125
161.06233489485	5343.7998046875
163.973083115868	5271.466796875
166.882818793097	5217.5
169.791542489729	5217.466796875
172.699254768567	5185.966796875
175.60595619209	5128
178.5116473224	5091
181.416328721259	5085.16650390625
184.320000950057	5059.7001953125
187.222664569858	5028.36669921875
190.124320141336	5014.7333984375
193.024968224852	5009.466796875
195.924609380368	4971.966796875
198.823244167539	4985.86669921875
201.720873145623	4971
204.617496873556	4975.2001953125
207.513115909906	4980.966796875
210.407730812889	4991.2001953125
213.301342140378	4970.06689453125
216.19395044987	5000.033203125
219.085556298543	5071.533203125
221.976160243188	5119.5
224.865762840274	5245.63330078125
227.754364645889	5387.16650390625
230.641966215796	5466.86669921875
233.528568105389	5518.36669921875
236.414170869724	5497.2666015625
239.298775063472	5456.89990234375
242.182381241009	5471.033203125
245.064989956303	5440.2333984375
247.946601763011	5444.13330078125
250.827217214431	5399.10009765625
253.706836863485	5454.66650390625
256.585461262776	5414.2998046875
259.463090964538	5430.966796875
262.339726520655	5439.06689453125
265.215368482684	5432.033203125
268.090017401811	5469.533203125
270.963673828854	5468.2333984375
273.83633831433	5507.43310546875
276.708011408363	5499.2001953125
279.578693660757	5557.56689453125
282.448385620947	5575.13330078125
285.317087838035	5615.89990234375
288.184800860754	5671.2001953125
291.051525237502	5775.36669921875
293.91726151634	5841.2998046875
296.782010244956	6002.2666015625
299.645771970707	6192.533203125
302.508547240595	6449.7333984375
305.370336601275	6530.60009765625
308.231140599056	6330.89990234375
311.090959779906	6011.39990234375
313.949794689425	5719
316.807645872888	5572.5
319.664513875216	5446.89990234375
322.520399240978	5299.16650390625
325.375302514399	5190.83349609375
328.229224239362	5110.2333984375
331.082164959406	5010.966796875
333.934125217701	4950.2666015625
336.785105557106	4868.06689453125
339.63510652011	4789.60009765625
342.484128648865	4756.43310546875
345.332172485161	4665.2001953125
348.179238570481	4582.466796875
351.025327445927	4548.93310546875
353.870439652258	4493.7666015625
356.714575729916	4445.2666015625
359.557736218976	4386.60009765625
362.399921659154	4343.033203125
365.241132589866	4312.43310546875
368.081369550147	4266.033203125
370.9206330787	4238.7998046875
373.758923713884	4192.033203125
376.596241993719	4125.7001953125
379.432588455865	4099.2666015625
382.267963637662	4065.56665039063
385.102368076089	4017.2666015625
387.935802307795	3967.7666015625
390.76826686907	3937.19995117188
393.599762295869	3882.66674804688
396.430289123809	3840.93334960938
399.259847888169	3820.06665039063
402.088439123881	3787.30004882813
404.916063365514	3735.80004882813
407.742721147318	3689.66674804688
410.568413003215	3670.7333984375
413.393139466752	3644.36669921875
416.216901071157	3614.66674804688
419.039698349307	3588.60009765625
421.861531833736	3553.03344726563
424.682402056651	3536.83325195313
427.502309549909	3504.46655273438
430.321254845016	3504.66674804688
433.139238473162	3484.5
435.956260965177	3457.60009765625
438.77232285156	3371.69995117188
441.587424662468	3245.86669921875
444.401566927712	3145.86669921875
447.214750176775	3031.06665039063
450.026974938794	2936.16674804688
452.83824174257	2828.86669921875
455.648551116567	2732.60009765625
458.457903588894	2640.83325195313
461.26629968734	2566.5
464.073739939357	2551.2333984375
466.880224872035	2547.96655273438
469.685755012153	2581.60009765625
472.49033088614	2595.19995117188
475.293953020089	2597.63330078125
478.096621939743	2636.5
480.898338170538	2661.36669921875
483.699102237533	2726.7666015625
486.498914665491	2805.46655273438
489.297775978795	2904.13330078125
492.095686701534	3059.56665039063
494.892647357429	3270.93334960938
497.688658469877	3608.43334960938
500.483720561944	4145.60009765625
503.277834156342	5116.60009765625
506.070999775463	6782.7001953125
508.863217941361	9792.56640625
511.654489175756	15577.966796875
514.444814000016	26270.56640625
517.2341929352	43070.69921875
520.022626502005	60128.93359375
522.810115220818	64252.96484375
525.596659611673	54709.1328125
528.382260194271	40757.43359375
531.166917487996	29886.8671875
533.950632011879	22964.599609375
536.73340428462	18527
539.515234824599	15474.6337890625
542.296124149831	13379.3662109375
545.076072778037	11864.033203125
547.855081226582	10662.7001953125
550.633150012498	9764.966796875
553.410279652488	8981.3662109375
556.186470662915	8407.966796875
558.96172355983	7820.7333984375
561.736038858928	7423.10009765625
564.509417075582	7086.33349609375
567.281858724831	6725.63330078125
570.05336432138	6458.33349609375
572.823934379622	6183.36669921875
575.593569413579	5977.2001953125
578.362269936978	5801.93310546875
581.130036463186	5602.33349609375
583.896869505276	5469.63330078125
586.662769575936	5340.66650390625
589.427737187587	5230.7666015625
592.191772852261	5117.33349609375
594.954877081707	5051
597.717050387307	4991.86669921875
600.478293280132	4882.5
603.238606270918	4872.2998046875
605.997989870071	4846.033203125
608.756444587674	4884.63330078125
611.51397093347	4997.89990234375
614.270569416885	5291.966796875
617.026240546994	5645.533203125
619.780984832579	5890.533203125
622.534802782051	5767.7998046875
625.28769490353	5515.7001953125
628.039661704777	5267.2666015625
630.790703693254	5044.2333984375
633.540821376072	4937.7998046875
636.290015260021	4898.60009765625
639.038285851557	4876.966796875
641.785633656838	4897.66650390625
644.53205918164	4846.33349609375
647.277562931475	4740.7333984375
650.022145411487	4645.86669921875
652.765807126504	4595.43310546875
655.508548581018	4557.60009765625
658.250370279212	4530.43310546875
660.991272724927	4483.66650390625
663.731256421695	4472.7333984375
666.470321872704	4454.33349609375
669.208469580824	4419.66650390625
671.945700048608	4430.7998046875
674.682013778259	4379.36669921875
677.417411271689	4334.56689453125
680.151893030452	4294.93310546875
682.885459555808	4255.33349609375
685.618111348654	4185.2001953125
688.349848909595	4122.033203125
691.080672738909	4073.2333984375
693.810583336532	4022.93334960938
696.539581202094	3983.7333984375
699.267666834878	3915.93334960938
701.994840733876	3876.46655273438
704.721103397717	3846.63330078125
707.446455324753	3794.33325195313
710.17089701297	3782.7333984375
712.894428960055	3731.5
715.617051663367	3699.60009765625
718.338765619947	3677.5
721.059571326491	3682.66674804688
723.77946927941	3646.89990234375
726.498459974761	3636.5
729.216543908288	3628.66674804688
731.933721575429	3591.53344726563
734.649993471274	3582.46655273438
737.365360090615	3591.2333984375
740.079821927902	3552.86669921875
742.793379477287	3552.80004882813
745.506033232575	3534.33325195313
748.217783687274	3509.36669921875
750.928631334558	3504.46655273438
753.638576667294	3507.53344726563
756.347620177996	3509.16674804688
759.055762358899	3503.66674804688
761.763003701896	3505.83325195313
764.469344698568	3514.30004882813
767.174785840164	3497.36669921875
769.879327617621	3515.2333984375
772.582970521569	3528.89990234375
775.285715042305	3524.96655273438
777.98756166981	3512.83325195313
780.688510893745	3520.2666015625
783.388563203461	3517.7666015625
786.087719087968	3526.66674804688
788.785979035992	3532.2666015625
791.483343535914	3528.56665039063
794.179813075812	3538.19995117188
796.875388143434	3532.39990234375
799.570069226218	3541.33325195313
802.263856811291	3550.10009765625
804.956751385454	3554.43334960938
807.648753435199	3582.30004882813
810.339863446682	3577.03344726563
813.030081905767	3597.06665039063
815.719409297987	3592.33325195313
818.407846108563	3605.53344726563
821.0953928224	3599.2666015625
823.782049924091	3617.36669921875
826.467817897908	3576.93334960938
829.152697227802	3591.5
831.836688397423	3573.7666015625
834.519791890103	3547.83325195313
837.202008188841	3510.86669921875
839.883337776345	3492.66674804688
842.563781134997	3461
845.243338746864	3460.56665039063
847.922011093711	3432.36669921875
850.599798656964	3426.5
853.276701917763	3429.66674804688
855.952721356905	3443.03344726563
858.627857454911	3427.60009765625
861.302110691947	3401.2333984375
863.975481547905	3409.46655273438
866.64797050233	3421.5
869.319578034484	3412.86669921875
871.990304623295	3399.16674804688
874.660150747378	3424.7666015625
877.329116885059	3410
879.997203514329	3412
882.664411112868	3406.66674804688
885.330740158065	3406.30004882813
887.996191126968	3407.16674804688
890.660764496346	3390.96655273438
893.32446074263	3394.89990234375
895.987280341944	3387.36669921875
898.649223770116	3397.56665039063
901.310291502651	3384.83325195313
903.970484014752	3394.93334960938
906.629801781296	3385.66674804688
909.288245276875	3396.7333984375
911.94581497574	3385.33325195313
914.602511351862	3420.2666015625
917.258334878881	3451.06665039063
919.913286030143	3484.2666015625
922.567365278671	3539
925.22057309719	3634.03344726563
927.872909958113	3791.93334960938
930.524376333534	4109.2333984375
933.174972695261	4570.7998046875
935.824699514769	5149.966796875
938.473557263243	5747.86669921875
941.121546411544	6350.7998046875
943.768667430247	6759.2001953125
946.414920789592	6897.2666015625
949.060306959546	6840
951.704826409726	6811.16650390625
954.348479609485	6742.16650390625
956.991267027837	6808.89990234375
959.633189133505	6804.033203125
962.274246394901	6856.56689453125
964.914439280131	6874.033203125
967.553768257001	6943.39990234375
970.192233792994	6937.60009765625
972.829836355309	6995
975.466576410819	6990.2998046875
978.102454426117	7004.2998046875
980.73747086746	7004.466796875
983.371626200825	6928.10009765625
986.004920891854	6725.06689453125
988.637355405927	6417.10009765625
991.268930208091	5877.89990234375
993.899645763094	5304.033203125
996.529502535374	4822.966796875
999.158500989077	4446.89990234375
1001.78664158804	4208.63330078125
1004.41392479578	4000.60009765625
1007.04035107555	3853.80004882813
1009.66592089027	3767.5
1012.29063470255	3628.2333984375
1014.91449297471	3532.30004882813
1017.53749616879	3415.2666015625
1020.15964474646	3330.89990234375
1022.78093916919	3251.33325195313
1025.40137989804	3173.96655273438
1028.02096739384	3089.03344726563
1030.6397021171	3002.96655273438
1033.257584528	2934.33325195313
1035.87461508647	2863.69995117188
1038.49079425209	2801
1041.10612248418	2748.63330078125
1043.72060024173	2745.03344726563
1046.33422798343	2718
1048.94700616768	2688.10009765625
1051.55893525258	2677.7666015625
1054.17001569593	2652.16674804688
1056.78024795523	2653.43334960938
1059.38963248767	2647.10009765625
1061.99816975014	2638.7666015625
1064.60586019925	2615.36669921875
1067.21270429129	2617.03344726563
1069.81870248227	2622.83325195313
1072.42385522787	2614.10009765625
1075.02816298352	2612.46655273438
1077.6316262043	2605.56665039063
1080.23424534501	2609.06665039063
1082.83602086017	2616.13330078125
1085.43695320399	2592.03344726563
1088.03704283036	2590.39990234375
1090.63629019293	2583.7333984375
1093.23469574496	2587.19995117188
1095.83225993951	2586.06665039063
1098.42898322928	2571.39990234375
1101.02486606671	2571.16674804688
1103.6199089039	2557.93334960938
1106.2141121927	2572.53344726563
1108.80747638464	2569.39990234375
1111.40000193095	2559.69995117188
1113.99168928258	2548.03344726563
1116.58253889016	2550.19995117188
1119.17255120405	2542.66674804688
1121.76172667429	2530.53344726563
1124.35006575066	2532.30004882813
1126.9375688826	2516.86669921875
1129.52423651929	2513.2666015625
1132.11006910959	2515.30004882813
1134.6950671021	2499.10009765625
1137.27923094508	2496.60009765625
1139.86256108653	2495
1142.44505797415	2490.66674804688
1145.02672205533	2480.39990234375
1147.60755377718	2471.7666015625
1150.18755358652	2465.56665039063
1152.76672192986	2469.86669921875
1155.34505925343	2455.7666015625
1157.92256600317	2458.2666015625
1160.49924262472	2440.43334960938
1163.07508956343	2456.36669921875
1165.65010726433	2446.33325195313
1168.22429617222	2438.89990234375
1170.79765673155	2444.63330078125
1173.3701893865	2433.69995117188
1175.94189458096	2436.13330078125
1178.51277275854	2419.80004882813
1181.08282436252	2430.86669921875
1183.65204983592	2425.2666015625
1186.22044962147	2431.06665039063
1188.7880241616	2425.89990234375
1191.35477389845	2420.66674804688
1193.92069927386	2423.63330078125
1196.4858007294	2420.46655273438
1199.05007870634	2424.33325195313
1201.61353364565	2409.39990234375
1204.17616598803	2431.10009765625
1206.73797617386	2427.83325195313
1209.29896464328	2419.63330078125
1211.85913183609	2424.33325195313
1214.41847819183	2410.2666015625
1216.97700414974	2418.16674804688
1219.53471014878	2423.63330078125
1222.09159662761	2414.13330078125
1224.64766402461	2407.30004882813
1227.20291277786	2405.7333984375
1229.75734332518	2414.13330078125
1232.31095610407	2399.06665039063
1234.86375155175	2398.03344726563
1237.41573010517	2376.56665039063
1239.96689220099	2375.33325195313
1242.51723827555	2375.56665039063
1245.06676876494	2367.39990234375
1247.61548410496	2380.03344726563
1250.16338473109	2367
1252.71047107857	2364.63330078125
1255.25674358232	2374.86669921875
1257.80220267699	2363.2333984375
1260.34684879693	2363.5
1262.89068237622	2339.06665039063
1265.43370384866	2347.63330078125
1267.97591364773	2351
1270.51731220666	2343.2666015625
1273.05789995838	2348.5
1275.59767733554	2339.13330078125
1278.1366447705	2341
1280.67480269535	2324.56665039063
1283.21215154188	2331.13330078125
1285.74869174159	2343.39990234375
1288.28442372571	2313.66674804688
1290.8193479252	2310.46655273438
1293.3534647707	2308
1295.88677469261	2315.46655273438
1298.41927812099	2315
1300.95097548568	2317.03344726563
1303.48186721619	2306
1306.01195374178	2313
1308.5412354914	2302.39990234375
1311.06971289374	2314.13330078125
1313.59738637719	2303.56665039063
1316.12425636987	2291.36669921875
1318.65032329961	2297.96655273438
1321.17558759397	2303.39990234375
1323.70004968023	2288.46655273438
1326.22370998537	2284.7333984375
1328.74656893609	2286.96655273438
1331.26862695885	2287.56665039063
1333.78988447977	2291.06665039063
1336.31034192473	2270.19995117188
1338.82999971932	2273.86669921875
1341.34885828883	2288.43334960938
1343.86691805832	2282.13330078125
1346.38417945251	2275.60009765625
1348.90064289589	2272.7333984375
1351.41630881263	2265.53344726563
1353.93117762666	2267.86669921875
1356.4452497616	2273.66674804688
1358.95852564079	2272.66674804688
1361.47100568733	2268.36669921875
1363.982690324	2260.80004882813
1366.49357997333	2262.2666015625
1369.00367505754	2262.5
1371.51297599862	2251.66674804688
1374.02148321822	2243.96655273438
1376.52919713777	2245.53344726563
1379.03611817839	2247.43334960938
1381.54224676093	2244.7666015625
1384.04758330597	2245.36669921875
1386.55212823381	2237.69995117188
1389.05588196447	2248.96655273438
1391.55884491769	2229.33325195313
1394.06101751295	2226.96655273438
1396.56240016941	2227.7333984375
1399.06299330603	2221.03344726563
1401.56279734144	2225.80004882813
1404.06181269398	2215.56665039063
1406.56003978177	2210.39990234375
1409.05747902262	2217.33325195313
1411.55413083404	2211.10009765625
1414.04999563334	2212.2333984375
1416.54507383748	2218.5
1419.03936586319	2196.10009765625
1421.5328721269	2200.56665039063
1424.02559304479	2203.30004882813
1426.51752903275	2211
1429.0086805064	2200.63330078125
1431.49904788109	2209.33325195313
1433.98863157188	2203.46655273438
1436.47743199359	2210.66674804688
1438.96544956074	2211.43334960938
1441.45268468757	2209.46655273438
1443.93913778808	2194.63330078125
1446.42480927597	2206.93334960938
1448.90969956468	2200.89990234375
1451.39380906737	2211.03344726563
1453.87713819694	2195.96655273438
1456.35968736602	2202.83325195313
1458.84145698693	2195.36669921875
1461.32244747178	2192.36669921875
1463.80265923236	2183.86669921875
1466.28209268021	2184.06665039063
1468.7607482266	2186.2666015625
1471.23862628251	2171
1473.71572725868	2174.2666015625
1476.19205156556	2159.56665039063
1478.66759961333	2159.80004882813
1481.14237181191	2163.39990234375
1483.61636857094	2159.5
1486.08959029979	2148.46655273438
1488.56203740757	2151.33325195313
1491.03371030312	2143.93334960938
1493.504609395	2144.16674804688
1495.97473509153	2134.43334960938
1498.4440878007	2138.10009765625
1500.9126679303	2138.60009765625
1503.3804758878	2127.5
1505.84751208046	2117.80004882813
1508.31377691521	2111.93334960938
1510.77927079874	2130.2666015625
1513.24399413748	2120.03344726563
1515.70794733758	2119.16674804688
1518.17113080493	2115.2333984375
1520.63354494515	2115.5
1523.09519016358	2109.06665039063
1525.55606686532	2110.63330078125
1528.01617545519	2101.63330078125
1530.47551633774	2105.60009765625
1532.93408991725	2109.93334960938
1535.39189659775	2090.03344726563
1537.84893678299	2096.2666015625
1540.30521087647	2102.93334960938
1542.7607192814	2100.06665039063
1545.21546240076	2091.03344726563
1547.66944063722	2097.69995117188
1550.12265439323	2093.16674804688
1552.57510407094	2085.86669921875
1555.02679007225	2087.2333984375
1557.47771279882	2086.10009765625
1559.92787265198	2086.16674804688
1562.37727003288	2080.7666015625
1564.82590534234	2083.03344726563
1567.27377898094	2087.10009765625
1569.72089134901	2077.03344726563
1572.16724284659	2079.7333984375
1574.61283387349	2085.30004882813
1577.05766482921	2070.16674804688
1579.50173611304	2073.5
1581.94504812397	2064.2333984375
1584.38760126074	2064.33325195313
1586.82939592183	2072
1589.27043250547	2065.43334960938
1591.71071140959	2060.16674804688
1594.1502330319	2068.33325195313
1596.58899776981	2056.60009765625
1599.02700602052	2062.33325195313
1601.46425818091	2065.39990234375
1603.90075464766	2055.36669921875
1606.33649581713	2065
1608.77148208546	2057.7333984375
1611.2057138485	2056.86669921875
1613.63919150188	2050.19995117188
1616.07191544093	2053.43334960938
1618.50388606074	2057.7666015625
1620.93510375615	2059.60009765625
1623.3655689217	2043.63330078125
1625.79528195172	2046.53332519531
1628.22424324025	2044.90002441406
1630.65245318109	2037.30004882813
1633.07991216775	2035.80004882813
1635.50662059351	2031.56665039063
1637.93257885141	2031.09997558594
1640.35778733417	2036.33337402344
1642.78224643431	2023.40002441406
1645.20595654406	2026.23327636719
1647.62891805542	2032.53332519531
1650.05113136009	2024.19995117188
1652.47259684955	2013.90002441406
1654.89331491501	2034.80004882813
1657.31328594743	2025
1659.73251033749	2025.80004882813
1662.15098847565	2025.16662597656
1664.56872075208	2020.40002441406
1666.98570755671	2020.90002441406
1669.40194927923	2015.76672363281
1671.81744630902	2015.63330078125
1674.23219903527	2019.93334960938
1676.64620784688	2022.46667480469
1679.05947313249	2013.30004882813
1681.47199528049	2012.03332519531
1683.88377467904	2008.66662597656
1686.29481171601	2012.26672363281
1688.70510677902	2018.40002441406
1691.11466025546	2011.16662597656
1693.52347253247	2015.43334960938
1695.93154399686	2009.83337402344
1698.33887503531	2010.40002441406
1700.74546603413	2003.5
1703.15131737945	2005.96667480469
1705.55642945712	2008.16662597656
1707.96080265273	2004.5
1710.36443735164	2008.86669921875
1712.76733393892	1991.46667480469
1715.16949279944	1999.96667480469
1717.57091431778	1998.63330078125
1719.97159887826	1995.40002441406
1722.37154686498	1993.69995117188
1724.77075866177	1994.5
1727.1692346522	1998.03332519531
1729.56697521962	1992.30004882813
1731.96398074709	1993.30004882813
1734.36025161743	1991.23327636719
1736.75578821323	1991.96667480469
1739.15059091682	1983.19995117188
1741.54466011027	1979.66662597656
1743.93799617539	1988.53332519531
1746.33059949376	1980.36669921875
1748.72247044671	1989.16662597656
1751.11360941531	1980.73327636719
1753.50401678037	1978.83337402344
1755.89369292247	1980.69995117188
1758.28263822195	1978.5
1760.67085305887	1978.09997558594
1763.05833781306	1975.23327636719
1765.4450928641	1970.13330078125
1767.83111859131	1974
1770.21641537377	1971.23327636719
1772.60098359033	1959.86669921875
1774.98482361954	1972.90002441406
1777.36793583978	1961.23327636719
1779.75032062909	1958.86669921875
1782.13197836535	1971.69995117188
1784.51290942612	1958.73327636719
1786.89311418877	1958.5
1789.27259303038	1962.19995117188
1791.65134632782	1959.06665039063
1794.02937445768	1955.46667480469
1796.40667779632	1956.93334960938
1798.78325671986	1955.03332519531
1801.15911160415	1957.06665039063
1803.53424282482	1955.16662597656
1805.90865075725	1946.80004882813
1808.28233577656	1956.5
1810.65529825763	1953.69995117188
1813.0275385751	1951.66662597656
1815.39905710336	1950.40002441406
1817.76985421656	1953.69995117188
1820.1399302886	1946.69995117188
1822.50928569314	1951.26672363281
1824.8779208036	1949.33337402344
1827.24583599314	1951.23327636719
1829.61303163468	1944.36669921875
1831.97950810092	1944.43334960938
1834.34526576427	1945.09997558594
1836.71030499695	1936.23327636719
1839.0746261709	1936.83337402344
1841.43822965782	1938.13330078125
1843.80111582919	1934.90002441406
1846.16328505622	1938.46667480469
1848.5247377099	1940.33337402344
1850.88547416095	1937.66662597656
1853.24549477987	1938.56665039063
1855.60479993693	1935.93334960938
1857.96339000213	1938.56665039063
1860.32126534522	1931.43334960938
1862.67842633576	1927.96667480469
1865.03487334299	1927.26672363281
1867.39060673601	1928.13330078125
1869.74562688358	1931.23327636719
1872.09993415429	1921.93334960938
1874.45352891644	1920.16662597656
1876.80641153813	1923.43334960938
1879.15858238719	1921.30004882813
1881.51004183123	1925.36669921875
1883.8607902376	1919.83337402344
1886.21082797343	1915.66662597656
1888.5601554056	1916.93334960938
1890.90877290074	1918.09997558594
1893.25668082527	1914.16662597656
1895.60387954535	1915.93334960938
1897.9503694269	1914.56665039063
1900.29615083561	1919.56665039063
1902.64122413693	1913.86669921875
1904.98558969606	1911.69995117188
1907.32924787797	1915.36669921875
1909.67219904742	1911.80004882813
1912.01444356887	1909.73327636719
1914.3559818066	1905.36669921875
1916.69681412463	1908.13330078125
1919.03694088673	1907.83337402344
1921.37636245645	1910.16662597656
1923.71507919711	1909.19995117188
1926.05309147176	1901.73327636719
1928.39039964327	1913.06665039063
1930.72700407421	1903.06665039063
1933.06290512695	1901.59997558594
1935.39810316362	1905.76672363281
1937.73259854611	1904.63330078125
1940.06639163608	1899.56665039063
1942.39948279493	1899.56665039063
1944.73187238387	1898.76672363281
1947.06356076384	1899.5
1949.39454829555	1896.33337402344
1951.72483533948	1902.40002441406
1954.05442225588	1890.93334960938
1956.38330940476	1902.83337402344
1958.71149714589	1902.5
1961.03898583882	1896.93334960938
1963.36577584285	1900.69995117188
1965.69186751706	1897.83337402344
1968.01726122028	1897.66662597656
1970.34195731113	1894.09997558594
1972.66595614798	1891.69995117188
1974.98925808898	1890.16662597656
1977.31186349201	1889
1979.63377271478	1891.16662597656
1981.95498611472	1883.26672363281
1984.27550404903	1886.33337402344
1986.59532687469	1882.13330078125
1988.91445494847	1880.5
1991.23288862685	1879.86669921875
1993.55062826614	1881.5
1995.86767422238	1875.06665039063
1998.18402685139	1882.69995117188
2000.49968650876	1875
2002.81465354985	1872.90002441406
2005.12892832979	1880.63330078125
2007.44251120347	1880.53332519531
2009.75540252556	1877.86669921875
2012.06760265049	1866.19995117188
2014.37911193249	1870.63330078125
2016.6899307255	1870.46667480469
2019.0000593833	1870.16662597656
2021.30949825938	1877.19995117188
2023.61824770704	1866.73327636719
2025.92630807934	1865.80004882813
2028.23367972911	1867.43334960938
2030.54036300895	1867.63330078125
2032.84635827122	1866.19995117188
2035.15166586809	1865.59997558594
2037.45628615144	1868.73327636719
2039.760219473	1864.33337402344
2042.06346618419	1862.93334960938
2044.36602663625	1866.43334960938
2046.66790118021	1860.16662597656
2048.96909016682	1865.23327636719
2051.26959394663	1865.23327636719
2053.56941286997	1866.5
2055.86854728693	1871.26672363281
2058.16699754739	1863.33337402344
2060.46476400098	1867.23327636719
2062.76184699713	1872.09997558594
2065.058246885	1857.40002441406
2067.35396401358	1862.53332519531
2069.64899873161	1859.09997558594
2071.94335138758	1854.96667480469
2074.2370223298	1857.90002441406
2076.53001190631	1856.69995117188
2078.82232046496	1855
2081.11394835335	1852.86669921875
2083.40489591888	1852.40002441406
2085.6951635087	1852.19995117188
2087.98475146976	1846.56665039063
2090.27366014875	1853.93334960938
2092.56188989219	1853.23327636719
2094.84944104631	1850.26672363281
2097.13631395718	1844.63330078125
2099.4225089706	1849.23327636719
2101.70802643217	1839.76672363281
2103.99286668728	1850.86669921875
2106.27703008104	1845.86669921875
2108.5605169584	1842.56665039063
2110.84332766406	1838.03332519531
2113.1254625425	1839.76672363281
2115.40692193797	1845.90002441406
2117.68770619451	1846.23327636719
2119.96781565593	1839.26672363281
2122.24725066583	1841.56665039063
2124.52601156757	1837.16662597656
2126.80409870431	1838.19995117188
2129.08151241896	1835.03332519531
2131.35825305425	1834.96667480469
2133.63432095264	1835.76672363281
2135.90971645641	1839.30004882813
2138.1844399076	1826.83337402344
2140.45849164803	1839.16662597656
2142.73187201931	1830.56665039063
2145.00458136282	1825.73327636719
2147.27662001972	1836.73327636719
2149.54798833095	1831.93334960938
2151.81868663725	1832.06665039063
2154.0887152791	1831.36669921875
2156.3580745968	1829.56665039063
2158.62676493042	1821.76672363281
2160.89478661981	1825.96667480469
2163.16214000458	1824.76672363281
2165.42882542414	1827.66662597656
2167.69484321771	1834.03332519531
2169.96019372424	1830
2172.2248772825	1829.83337402344
2174.48889423101	1826
2176.7522449081	1825.33337402344
2179.01492965187	1823.63330078125
2181.27694880022	1824.56665039063
2183.53830269079	1820.86669921875
2185.79899166106	1825.09997558594
2188.05901604825	1819.5
2190.31837618938	1817.66662597656
2192.57707242125	1823.26672363281
2194.83510508044	1823.26672363281
2197.09247450333	1823.63330078125
2199.34918102607	1820.30004882813
2201.60522498459	1818.5
2203.86060671463	1817.43334960938
2206.11532655168	1822.33337402344
2208.36938483104	1817.06665039063
2210.62278188778	1813.96667480469
2212.87551805676	1809.26672363281
2215.12759367264	1816.73327636719
2217.37900906984	1814.30004882813
2219.62976458259	1811.53332519531
2221.87986054487	1807.53332519531
2224.1292972905	1807.53332519531
2226.37807515303	1810.40002441406
2228.62619446583	1805.46667480469
2230.87365556206	1809.83337402344
2233.12045877465	1810.69995117188
2235.36660443631	1806.16662597656
2237.61209287956	1801.66662597656
2239.8569244367	1811.93334960938
2242.10109943981	1803.90002441406
2244.34461822076	1801.43334960938
2246.58748111121	1801.33337402344
2248.82968844261	1803.96667480469
2251.07124054618	1804.30004882813
2253.31213775297	1807.59997558594
2255.55238039377	1799.86669921875
2257.79196879919	1802.06665039063
2260.03090329962	1803.96667480469
2262.26918422523	1799.46667480469
2264.50681190599	1793.69995117188
2266.74378667167	1801.90002441406
2268.98010885179	1800.06665039063
2271.2157787757	1791.96667480469
2273.45079677254	1796.83337402344
2275.6851631712	1799
2277.9188783004	1793.23327636719
2280.15194248863	1793.40002441406
2282.38435606418	1790.73327636719
2284.61611935512	1793.26672363281
2286.84723268932	1793.26672363281
2289.07769639444	1795.5
2291.30751079794	1789.96667480469
2293.53667622705	1793.13330078125
2295.76519300879	1795.36669921875
2297.99306147001	1795
2300.22028193732	1789.43334960938
2302.44685473711	1790.23327636719
2304.6727801956	1789.26672363281
2306.89805863878	1791.66662597656
2309.12269039242	1788.03332519531
2311.34667578211	1788.26672363281
2313.57001513323	1789.16662597656
2315.79270877092	1788.06665039063
2318.01475702017	1788.43334960938
2320.2361602057	1783.66662597656
2322.45691865206	1788.43334960938
2324.6770326836	1786.13330078125
2326.89650262444	1784.90002441406
2329.11532879851	1781.83337402344
2331.33351152953	1787.03332519531
2333.55105114102	1784
2335.76794795629	1781.90002441406
2337.98420229842	1782.80004882813
2340.19981449035	1775.06665039063
2342.41478485473	1783.46667480469
2344.62911371408	1774.53332519531
2346.84280139066	1775.33337402344
2349.05584820658	1774.40002441406
2351.26825448369	1778.80004882813
2353.48002054368	1774.33337402344
2355.691146708	1779.43334960938
2357.90163329792	1772.23327636719
2360.11148063452	1772.83337402344
2362.32068903863	1770.30004882813
2364.52925883092	1771.73327636719
2366.73719033183	1777.43334960938
2368.94448386163	1776.69995117188
2371.15113974034	1774.09997558594
2373.35715828782	1780.66662597656
2375.5625398237	1773.53332519531
2377.76728466743	1774.26672363281
2379.97139313824	1771.06665039063
2382.17486555516	1771.69995117188
2384.37770223703	1771.73327636719
2386.57990350247	1771.86669921875
2388.78146966994	1763.30004882813
2390.98240105763	1771.90002441406
2393.18269798359	1769.69995117188
2395.38236076565	1769.86669921875
2397.58138972143	1763.83337402344
2399.77978516836	1765.06665039063
2401.97754742366	1769.26672363281
2404.17467680435	1769.43334960938
2406.37117362728	1768.59997558594
2408.56703820905	1767.69995117188
2410.7622708661	1763.5
2412.95687191466	1759.69995117188
2415.15084167074	1767.5
2417.34418045018	1764.53332519531
2419.53688856861	1764.26672363281
2421.72896634147	1760.03332519531
2423.92041408397	1765.09997558594
2426.11123211117	1764.96667480469
2428.30142073788	1756.66662597656
2430.49098027875	1758.86669921875
2432.67991104822	1757.66662597656
2434.86821336053	1765.26672363281
2437.05588752972	1757.36669921875
2439.24293386965	1760.93334960938
2441.42935269395	1757.23327636719
2443.61514431608	1754.69995117188
2445.80030904931	1760.59997558594
2447.98484720668	1758.43334960938
2450.16875910105	1755.13330078125
2452.3520450451	1756.66662597656
2454.53470535129	1753.63330078125
2456.7167403319	1754.09997558594
2458.898150299	1748.26672363281
2461.07893556448	1752.13330078125
2463.25909644001	1755.90002441406
2465.4386332371	1755.73327636719
2467.61754626704	1752.46667480469
2469.79583584091	1754
2471.97350226965	1752.13330078125
2474.15054586395	1747.36669921875
2476.32696693433	1748.43334960938
2478.50276579111	1750.86669921875
2480.67794274441	1748
2482.85249810418	1743.09997558594
2485.02643218015	1744.19995117188
2487.19974528187	1753.06665039063
2489.37243771868	1740.09997558594
2491.54450979976	1753.16662597656
2493.71596183406	1744.59997558594
2495.88679413036	1745.26672363281
2498.05700699723	1745.63330078125
2500.22660074307	1743.66662597656
2502.39557567606	1748.03332519531
2504.56393210422	1742.36669921875
2506.73167033534	1743.36669921875
2508.89879067706	1744.59997558594
2511.06529343678	1746.93334960938
2513.23117892175	1743.53332519531
2515.39644743903	1738.13330078125
2517.56109929543	1745.73327636719
2519.72513479764	1740.46667480469
2521.88855425212	1740.53332519531
2524.05135796515	1736.96667480469
2526.21354624281	1739.13330078125
2528.37511939102	1737.30004882813
2530.53607771546	1732.5
2532.69642152166	1737.96667480469
2534.85615111494	1739.30004882813
2537.01526680044	1736.40002441406
2539.17376888311	1738.53332519531
2541.3316576677	1732.93334960938
2543.48893345878	1734.83337402344
2545.64559656073	1735.13330078125
2547.80164727774	1735.96667480469
2549.95708591381	1737.69995117188
2552.11191277276	1735.53332519531
2554.2661281582	1735.93334960938
2556.41973237357	1730.46667480469
2558.57272572212	1728.80004882813
2560.72510850691	1733.53332519531
2562.8768810308	1732.36669921875
2565.02804359649	1731.30004882813
2567.17859650646	1728.40002441406
2569.32854006303	1731.56665039063
2571.47787456831	1728.43334960938
2573.62660032425	1731.63330078125
2575.77471763258	1731.06665039063
2577.92222679487	1730.19995117188
2580.0691281125	1727.63330078125
2582.21542188663	1727.09997558594
2584.3611084183	1729.40002441406
2586.5061880083	1730.59997558594
2588.65066095727	1732.63330078125
2590.79452756565	1727.13330078125
2592.9377881337	1732.66662597656
2595.08044296149	1733.76672363281
2597.22249234891	1724.06665039063
2599.36393659566	1726.73327636719
2601.50477600126	1727.63330078125
2603.64501086504	1723
2605.78464148615	1726.26672363281
2607.92366816356	1726.73327636719
2610.06209119605	1727.26672363281
2612.1999108822	1730.16662597656
2614.33712752044	1728.66662597656
2616.47374140899	1725.03332519531
2618.60975284589	1724
2620.74516212901	1721.23327636719
2622.87996955602	1720.76672363281
2625.01417542443	1724.83337402344
2627.14778003154	1724.96667480469
2629.28078367448	1719.40002441406
2631.41318665019	1717.86669921875
2633.54498925545	1721.06665039063
2635.67619178683	1722.53332519531
2637.80679454074	1718.09997558594
2639.93679781339	1721.80004882813
2642.06620190081	1723.69995117188
2644.19500709887	1723.76672363281
2646.32321370324	1720.66662597656
2648.4508220094	1721.69995117188
2650.57783231268	1710.69995117188
2652.7042449082	1721.53332519531
2654.8300600909	1714.53332519531
2656.95527815557	1720
2659.07989939677	1715.16662597656
2661.20392410894	1717.63330078125
2663.32735258629	1717.56665039063
2665.45018512287	1715.63330078125
2667.57242201254	1714.59997558594
2669.69406354901	1715.30004882813
2671.81511002577	1721.76672363281
2673.93556173616	1715.96667480469
2676.05541897333	1714.46667480469
2678.17468203024	1717.09997558594
2680.2933511997	1716.59997558594
2682.41142677431	1711.36669921875
2684.52890904651	1712.93334960938
2686.64579830858	1715.43334960938
2688.76209485256	1712.83337402344
2690.87779897038	1714.26672363281
2692.99291095376	1714.59997558594
2695.10743109424	1717.96667480469
2697.22135968318	1715.33337402344
2699.33469701179	1709.40002441406
2701.44744337108	1711.73327636719
2703.55959905187	1713.73327636719
2705.67116434485	1711.40002441406
2707.78213954048	1713.19995117188
2709.89252492907	1709
2712.00232080076	1712.03332519531
2714.1115274455	1707.13330078125
2716.22014515307	1709.83337402344
2718.32817421306	1707.96667480469
2720.43561491492	1708.43334960938
2722.54246754789	1706.66662597656
2724.64873240104	1708.46667480469
2726.75440976329	1702.80004882813
2728.85949992335	1706.86669921875
2730.96400316978	1707.69995117188
2733.06791979094	1703.63330078125
2735.17125007505	1703.09997558594
2737.27399431013	1705.63330078125
2739.37615278404	1709
2741.47772578445	1707.09997558594
2743.57871359887	1697.53332519531
2745.67911651463	1706.23327636719
2747.7789348189	1699.59997558594
2749.87816879864	1703.16662597656
2751.97681874068	1699.93334960938
2754.07488493166	1702.76672363281
2756.17236765804	1701.76672363281
2758.26926720611	1699.19995117188
2760.36558386199	1702.46667480469
2762.46131791164	1703.36669921875
2764.55646964082	1695.63330078125
2766.65103933514	1698.13330078125
2768.74502728003	1696.80004882813
2770.83843376075	1698.40002441406
2772.93125906238	1697.59997558594
2775.02350346986	1699.03332519531
2777.11516726792	1696.76672363281
2779.20625074112	1696.63330078125
2781.29675417389	1700.59997558594
2783.38667785045	1703.09997558594
2785.47602205485	1695.93334960938
2787.564787071	1695.86669921875
2789.65297318262	1696.33337402344
2791.74058067325	1693.56665039063
2793.82760982627	1697.03332519531
2795.9140609249	1698.53332519531
2797.99993425218	1695.53332519531
2800.08523009097	1698.73327636719
2802.16994872399	1695.66662597656
2804.25409043376	1695.69995117188
2806.33765550265	1695.96667480469
2808.42064421285	1694.19995117188
2810.5030568464	1694.43334960938
2812.58489368514	1693.86669921875
2814.66615501076	1693.40002441406
2816.7468411048	1691.09997558594
2818.8269522486	1691.80004882813
2820.90648872334	1699.66662597656
2822.98545081005	1696.43334960938
2825.06383878958	1696.26672363281
2827.1416529426	1691.66662597656
2829.21889354963	1692.33337402344
2831.29556089103	1693.90002441406
2833.37165524697	1689.73327636719
2835.44717689746	1684.80004882813
2837.52212612235	1692.46667480469
2839.59650320133	1686.66662597656
2841.67030841392	1688.30004882813
2843.74354203945	1691.5
2845.81620435711	1688.40002441406
2847.88829564593	1693
2849.95981618474	1687.90002441406
2852.03076625224	1689.16662597656
2854.10114612695	1687.69995117188
2856.17095608722	1688.30004882813
2858.24019641124	1686.73327636719
2860.30886737704	1685.76672363281
2862.37696926247	1686.43334960938
2864.44450234525	1683.46667480469
2866.51146690289	1684.83337402344
2868.57786321276	1689.83337402344
2870.64369155207	1682.69995117188
2872.70895219786	1685.63330078125
2874.77364542701	1690.13330078125
2876.83777151622	1685.90002441406
2878.90133074205	1684.90002441406
2880.96432338087	1689.33337402344
2883.02674970892	1683.90002441406
2885.08861000225	1683.06665039063
2887.14990453676	1689.03332519531
2889.21063358818	1683.66662597656
2891.27079743209	1687.53332519531
2893.33039634389	1688.30004882813
2895.38943059883	1682.30004882813
2897.447900472	1689.09997558594
2899.50580623832	1687.80004882813
2901.56314817254	1684
2903.61992654928	1681.69995117188
2905.67614164298	1684.73327636719
2907.73179372789	1683.73327636719
2909.78688307816	1680.43334960938
2911.84140996772	1685.19995117188
2913.89537467038	1687.5
2915.94877745976	1684.53332519531
2918.00161860935	1682.36669921875
2920.05389839246	1685
2922.10561708223	1683.16662597656
2924.15677495167	1685.46667480469
2926.20737227361	1678.26672363281
2928.25740932072	1682.26672363281
2930.30688636552	1684.83337402344
2932.35580368036	1683.46667480469
2934.40416153743	1679.16662597656
2936.45196020879	1680.76672363281
2938.49919996629	1683.26672363281
2940.54588108167	1682.09997558594
2942.59200382649	1676.86669921875
2944.63756847214	1679.40002441406
2946.68257528988	1680.23327636719
2948.72702455079	1682.69995117188
2950.7709165258	1675.96667480469
2952.81425148567	1679.59997558594
2954.85702970103	1681
2956.89925144233	1677.86669921875
2958.94091697988	1675
2960.9820265838	1676.63330078125
2963.02258052408	1669.59997558594
2965.06257907056	1677.06665039063
2967.1020224929	1674.90002441406
2969.14091106062	1677.23327636719
2971.17924504309	1672.83337402344
2973.21702470949	1674.80004882813
2975.25425032888	1676.16662597656
2977.29092217015	1675.66662597656
2979.32704050203	1671.03332519531
2981.36260559311	1672.36669921875
2983.3976177118	1672.73327636719
2985.43207712638	1673.96667480469
2987.46598410496	1673.96667480469
2989.4993389155	1672.33337402344
2991.5321418258	1676.40002441406
2993.56439310352	1668.06665039063
2995.59609301614	1669.59997558594
2997.62724183102	1670.36669921875
2999.65783981532	1670.56665039063
3001.6878872361	1670.86669921875
3003.71738436023	1667.30004882813
3005.74633145443	1671.46667480469
3007.77472878527	1670.33337402344
3009.80257661918	1671.23327636719
3011.82987522242	1676
3013.85662486111	1667.80004882813
3015.88282580119	1670.53332519531
3017.90847830848	1668.90002441406
3019.93358264864	1668.40002441406
3021.95813908716	1669.90002441406
3023.9821478894	1667.13330078125
3026.00560932055	1670.36669921875
3028.02852364566	1665
3030.05089112962	1666.56665039063
3032.07271203718	1665.56665039063
3034.09398663292	1665.33337402344
3036.11471518128	1666.66662597656
3038.13489794656	1665.86669921875
3040.15453519289	1664.73327636719
3042.17362718426	1665.69995117188
3044.1921741845	1666.06665039063
3046.2101764573	1668.96667480469
3048.22763426619	1665.40002441406
3050.24454787457	1671.06665039063
3052.26091754566	1663.80004882813
3054.27674354254	1666.56665039063
3056.29202612816	1665.23327636719
3058.3067655653	1667.5
3060.32096211659	1670
3062.33461604452	1666.16662597656
3064.34772761144	1663.33337402344
3066.36029707952	1663.26672363281
3068.37232471081	1663.83337402344
3070.3838107672	1666.23327636719
3072.39475551043	1666.83337402344
3074.40515920209	1662
3076.41502210364	1668.03332519531
3078.42434447637	1663.30004882813
3080.43312658143	1665.06665039063
3082.44136867982	1663.30004882813
3084.44907103239	1662.43334960938
3086.45623389987	1662.30004882813
3088.4628575428	1668
3090.4689422216	1663.23327636719
3092.47448819653	1662.09997558594
3094.47949572772	1668.36669921875
3096.48396507513	1664.73327636719
3098.48789649859	1664.33337402344
3100.49129025779	1664.46667480469
3102.49414661225	1661.96667480469
3104.49646582136	1659.5
3106.49824814437	1661.03332519531
3108.49949384037	1658.30004882813
3110.50020316831	1659.59997558594
3112.500376387	1661.83337402344
3114.50001375509	1664.33337402344
3116.4991155311	1659.19995117188
3118.4976819734	1660.90002441406
3120.49571334021	1657.5
3122.49320988962	1657.83337402344
3124.49017187955	1655.66662597656
3126.48659956781	1657.59997558594
3128.48249321203	1661.09997558594
3130.47785306973	1657.36669921875
3132.47267939825	1658.16662597656
3134.46697245482	1657.06665039063
3136.46073249651	1656.59997558594
3138.45395978023	1655.73327636719
3140.44665456279	1659.73327636719
3142.43881710082	1657.66662597656
3144.43044765083	1656.90002441406
3146.42154646916	1656.59997558594
3148.41211381202	1654.69995117188
3150.4021499355	1654.63330078125
3152.39165509552	1653.16662597656
3154.38062954786	1658.46667480469
3156.36907354817	1653
3158.35698735195	1657.93334960938
3160.34437121457	1654.13330078125
3162.33122539124	1655.06665039063
3164.31755013704	1654.69995117188
3166.3033457069	1656.90002441406
3168.28861235562	1659.76672363281
3170.27335033786	1652.80004882813
3172.25755990813	1650.73327636719
3174.2412413208	1653.63330078125
3176.22439483009	1655.13330078125
3178.20702069011	1651.5
3180.18911915481	1654.40002441406
3182.17069047799	1653.13330078125
3184.15173491334	1656.96667480469
3186.13225271437	1653.86669921875
3188.11224413448	1655.63330078125
3190.09170942692	1652.86669921875
3192.07064884482	1654.13330078125
3194.04906264114	1651.19995117188
3196.02695106871	1649
3198.00431438023	1652.13330078125
3199.98115282827	1652.13330078125
3201.95746666524	1649.30004882813
3203.93325614341	1651.46667480469
3205.90852151494	1650
3207.88326303182	1652
3209.85748094592	1647.73327636719
3211.83117550897	1649.06665039063
3213.80434697256	1651.33337402344
3215.77699558815	1649.19995117188
3217.74912160705	1648.96667480469
3219.72072528044	1648.69995117188
3221.69180685935	1651.83337402344
3223.6623665947	1652.80004882813
3225.63240473726	1650.26672363281
3227.60192153764	1646.73327636719
3229.57091724636	1649.86669921875
3231.53939211376	1649.90002441406
3233.50734639007	1650.03332519531
3235.47478032538	1648.93334960938
3237.44169416964	1649.03332519531
3239.40808817265	1647.40002441406
3241.3739625841	1642.80004882813
3243.33931765354	1651.5
3245.30415363038	1644.96667480469
3247.26847076388	1646.96667480469
3249.23226930318	1646.40002441406
3251.1955494973	1648.53332519531
3253.15831159509	1649.26672363281
3255.1205558453	1648.43334960938
3257.08228249652	1649.5
3259.04349179722	1642.40002441406
3261.00418399574	1648.56665039063
3262.96435934026	1646.69995117188
3264.92401807885	1647.46667480469
3266.88316045946	1647
3268.84178672986	1648.23327636719
3270.79989713773	1647.30004882813
3272.7574919306	1646.19995117188
3274.71457135587	1645.40002441406
3276.6711356608	1646.40002441406
3278.62718509252	1646.90002441406
3280.58271989803	1645.80004882813
3282.53774032421	1644.5
3284.49224661778	1643.40002441406
3286.44623902535	1647.26672363281
3288.39971779339	1644.63330078125
3290.35268316824	1646.43334960938
3292.30513539611	1641.63330078125
3294.25707472307	1647.06665039063
3296.20850139507	1639.53332519531
3298.15941565793	1644.19995117188
3300.10981775731	1646.36669921875
3302.05970793879	1642.69995117188
3304.00908644778	1645.09997558594
3305.95795352955	1641.96667480469
3307.9063094293	1643.36669921875
3309.85415439202	1641.69995117188
3311.80148866264	1642
3313.74831248591	1643.03332519531
3315.69462610647	1642.46667480469
3317.64042976884	1643.23327636719
3319.58572371739	1644.30004882813
3321.53050819639	1642.53332519531
3323.47478344994	1644.96667480469
3325.41854972204	1642.26672363281
3327.36180725656	1641.93334960938
3329.30455629722	1640.86669921875
3331.24679708763	1637.86669921875
3333.18852987128	1639.73327636719
3335.12975489151	1640.59997558594
3337.07047239154	1640.93334960938
3339.01068261447	1641.63330078125
3340.95038580325	1641.46667480469
3342.88958220072	1644.46667480469
3344.82827204961	1637.90002441406
3346.76645559248	1638.53332519531
3348.70413307179	1640.63330078125
3350.64130472987	1640.76672363281
3352.57797080891	1643.36669921875
3354.51413155099	1638.59997558594
3356.44978719807	1640.73327636719
3358.38493799195	1639.5
3360.31958417434	1643.06665039063
3362.25372598679	1638.30004882813
3364.18736367075	1638
3366.12049746753	1637.19995117188
3368.05312761833	1642.23327636719
3369.9852543642	1638.80004882813
3371.91687794609	1640.03332519531
3373.8479986048	1641.66662597656
3375.77861658103	1638.76672363281
3377.70873211532	1638.53332519531
3379.63834544813	1641.03332519531
3381.56745681977	1638.5
3383.49606647041	1636.69995117188
3385.42417464013	1638.09997558594
3387.35178156885	1635.63330078125
3389.27888749641	1636.73327636719
3391.20549266247	1636.66662597656
3393.13159730662	1639.80004882813
3395.05720166829	1635.30004882813
3396.9823059868	1634.13330078125
3398.90691050135	1634.69995117188
3400.83101545101	1635.33337402344
3402.75462107473	1638.33337402344
3404.67772761132	1634.36669921875
3406.60033529949	1635.23327636719
3408.52244437783	1634.63330078125
3410.44405508479	1632.63330078125
3412.3651676587	1636.80004882813
3414.28578233777	1635.56665039063
3416.2058993601	1634.83337402344
3418.12551896366	1636.76672363281
3420.04464138627	1636.69995117188
3421.96326686569	1635.13330078125
3423.88139563949	1635.40002441406
3425.79902794517	1635.59997558594
3427.71616402009	1633.5
3429.63280410148	1636.46667480469
3431.54894842645	1633.56665039063
3433.464597232	1634.86669921875
3435.37975075503	1635.03332519531
3437.29440923226	1637.53332519531
3439.20857290035	1633.53332519531
3441.12224199579	1632.66662597656
3443.035416755	1634.43334960938
3444.94809741424	1633.59997558594
3446.86028420966	1635.56665039063
3448.7719773773	1633.09997558594
3450.68317715308	1632.66662597656
3452.59388377278	1633.16662597656
3454.50409747209	1637.19995117188
3456.41381848656	1634.56665039063
3458.32304705162	1636.53332519531
3460.2317834026	1635.16662597656
3462.1400277747	1634.43334960938
3464.047780403	1635.66662597656
3465.95504152246	1638.93334960938
3467.86181136793	1634
3469.76809017412	1632.19995117188
3471.67387817566	1635.33337402344
3473.57917560703	1631.30004882813
3475.4839827026	1634.90002441406
3477.38829969664	1633.93334960938
3479.29212682326	1629.36669921875
3481.19546431651	1630.59997558594
3483.09831241027	1633.90002441406
3485.00067133835	1632.36669921875
3486.9025413344	1632.23327636719
3488.80392263197	1634.33337402344
3490.70481546451	1633.36669921875
3492.60522006534	1630.09997558594
3494.50513666765	1632.43334960938
3496.40456550454	1631.26672363281
3498.30350680898	1634.16662597656
3500.20196081382	1630.76672363281
3502.0999277518	1629.86669921875
3503.99740785554	1628.23327636719
3505.89440135756	1631.63330078125
3507.79090849025	1630.36669921875
3509.68692948589	1630.03332519531
3511.58246457663	1630.80004882813
3513.47751399454	1629.83337402344
3515.37207797153	1629.36669921875
3517.26615673944	1631.53332519531
3519.15975052996	1629.19995117188
3521.05285957469	1629.66662597656
3522.9454841051	1628.66662597656
3524.83762435255	1630.43334960938
3526.7292805483	1625.5
3528.62045292348	1631
3530.5111417091	1627.76672363281
3532.40134713609	1631.63330078125
3534.29106943522	1625.30004882813
3536.18030883718	1631.16662597656
3538.06906557255	1630.19995117188
3539.95733987177	1626.33337402344
3541.84513196519	1626.80004882813
3543.73244208305	1630.36669921875
3545.61927045544	1629.23327636719
3547.5056173124	1627.96667480469
3549.39148288379	1627.40002441406
3551.27686739942	1629.06665039063
3553.16177108894	1626.19995117188
3555.04619418191	1628.56665039063
3556.93013690779	1627.96667480469
3558.8135994959	1630.73327636719
3560.69658217547	1628.76672363281
3562.57908517561	1630.16662597656
3564.46110872532	1626.33337402344
3566.3426530535	1625.36669921875
3568.22371838891	1627.33337402344
3570.10430496024	1627.33337402344
3571.98441299604	1626.03332519531
3573.86404272476	1627.76672363281
3575.74319437474	1626.43334960938
3577.62186817419	1628.03332519531
3579.50006435126	1623.93334960938
3581.37778313393	1627.73327636719
3583.25502475011	1624.19995117188
3585.1317894276	1626.19995117188
3587.00807739406	1625.66662597656
3588.88388887708	1626.13330078125
3590.7592241041	1622.30004882813
3592.6340833025	1628.73327636719
3594.50846669951	1625.30004882813
3596.38237452226	1625.73327636719
3598.25580699778	1623.26672363281
3600.128764353	1623.93334960938
3602.00124681473	1624.76672363281
3603.87325460965	1624.73327636719
3605.74478796438	1626.09997558594
3607.6158471054	1625.59997558594
3609.48643225908	1623.30004882813
3611.35654365171	1625.19995117188
3613.22618150943	1627.03332519531
3615.09534605832	1624.43334960938
3616.96403752432	1626.90002441406
3618.83225613328	1624.30004882813
3620.70000211093	1621.53332519531
3622.56727568289	1623.90002441406
3624.43407707471	1619.09997558594
3626.30040651178	1623.40002441406
3628.16626421943	1619.46667480469
3630.03165042286	1620.96667480469
3631.89656534716	1621.80004882813
3633.76100921734	1623.26672363281
3635.62498225827	1620.63330078125
3637.48848469475	1620.03332519531
3639.35151675143	1619.13330078125
3641.21407865291	1622.40002441406
3643.07617062364	1620.36669921875
3644.93779288798	1623.36669921875
3646.7989456702	1620.59997558594
3648.65962919443	1622.5
3650.51984368473	1620.93334960938
3652.37958936505	1622.46667480469
3654.23886645922	1623.16662597656
3656.09767519098	1624.40002441406
3657.95601578395	1620.53332519531
3659.81388846166	1620.09997558594
3661.67129344754	1620.30004882813
3663.5282309649	1620.36669921875
3665.38470123697	1622.09997558594
3667.24070448684	1618.93334960938
3669.09624093753	1621.86669921875
3670.95131081196	1620.53332519531
3672.80591433291	1619.26672363281
3674.6600517231	1619.73327636719
3676.51372320512	1620.73327636719
3678.36692900147	1620.5
3680.21966933453	1618.16662597656
3682.07194442661	1620.86669921875
3683.92375449988	1621.09997558594
3685.77509977644	1619.13330078125
3687.62598047828	1616.66662597656
3689.47639682727	1618.56665039063
3691.3263490452	1618.90002441406
3693.17583735375	1620.59997558594
3695.02486197449	1617.36669921875
