 1.58320E+03
 1.58170E+03
 1.58180E+03
 1.58180E+03
 1.58130E+03
 1.58060E+03
 1.58070E+03
 1.58080E+03
 1.58080E+03
 1.58130E+03
 1.57870E+03
 1.57870E+03
 1.58070E+03
 1.58200E+03
 1.57960E+03
 1.58040E+03
 1.58090E+03
 1.58210E+03
 1.58270E+03
 1.58190E+03
 1.58250E+03
 1.58160E+03
 1.58200E+03
 1.57860E+03
 1.58190E+03
 1.58380E+03
 1.58230E+03
 1.58010E+03
 1.58210E+03
 1.57890E+03
 1.58110E+03
 1.58180E+03
 1.58210E+03
 1.58160E+03
 1.58090E+03
 1.57830E+03
 1.57940E+03
 1.57910E+03
 1.58200E+03
 1.58020E+03
 1.58060E+03
 1.57890E+03
 1.58200E+03
 1.58120E+03
 1.58260E+03
 1.57930E+03
 1.58020E+03
 1.58160E+03
 1.58070E+03
 1.58220E+03
 1.57970E+03
 1.58070E+03
 1.57970E+03
 1.57990E+03
 1.58250E+03
 1.58180E+03
 1.58030E+03
 1.58160E+03
 1.58110E+03
 1.58080E+03
 1.58090E+03
 1.58230E+03
 1.58460E+03
 1.58270E+03
 1.57950E+03
 1.58140E+03
 1.57870E+03
 1.58130E+03
 1.58190E+03
 1.58060E+03
 1.57920E+03
 1.58070E+03
 1.58300E+03
 1.58370E+03
 1.57990E+03
 1.58370E+03
 1.59480E+03
 1.64660E+03
 1.69920E+03
 1.67620E+03
 1.61260E+03
 1.58490E+03
 1.58040E+03
 1.58050E+03
 1.58180E+03
 1.58130E+03
 1.58190E+03
 1.58130E+03
 1.58150E+03
 1.58180E+03
 1.58230E+03
 1.58050E+03
 1.58120E+03
 1.58370E+03
 1.58310E+03
 1.58190E+03
 1.58250E+03
 1.58220E+03
 1.58090E+03
 1.58040E+03
 1.58340E+03
 1.58100E+03
 1.58310E+03
 1.58050E+03
 1.58140E+03
 1.58190E+03
 1.58050E+03
 1.58170E+03
 1.58120E+03
 1.58160E+03
 1.58090E+03
 1.58330E+03
 1.58200E+03
 1.58150E+03
 1.58010E+03
 1.58380E+03
 1.58060E+03
 1.58120E+03
 1.58100E+03
 1.58210E+03
 1.58100E+03
 1.58080E+03
 1.58210E+03
 1.58090E+03
 1.58210E+03
 1.58360E+03
 1.58100E+03
 1.58290E+03
 1.58020E+03
 1.58180E+03
 1.58180E+03
 1.58180E+03
 1.58440E+03
 1.58140E+03
 1.58100E+03
 1.58120E+03
 1.58060E+03
 1.57990E+03
 1.58020E+03
 1.58240E+03
 1.57960E+03
 1.57990E+03
 1.57950E+03
 1.58030E+03
 1.58180E+03
 1.58180E+03
 1.58150E+03
 1.58070E+03
 1.58160E+03
 1.58150E+03
 1.58520E+03
 1.58430E+03
 1.58480E+03
 1.59100E+03
 1.59000E+03
 1.60150E+03
 1.60280E+03
 1.60860E+03
 1.61830E+03
 1.63740E+03
 1.65220E+03
 1.66640E+03
 1.68720E+03
 1.71010E+03
 1.73940E+03
 1.77030E+03
 1.79130E+03
 1.84050E+03
 1.87180E+03
 1.92150E+03
 1.98480E+03
 2.02120E+03
 2.10120E+03
 2.16930E+03
 2.22590E+03
 2.28240E+03
 2.38380E+03
 2.44290E+03
 2.50380E+03
 2.55730E+03
 2.59300E+03
 2.62400E+03
 2.65260E+03
 2.69210E+03
 2.67600E+03
 2.70800E+03
 2.70000E+03
 2.68720E+03
 2.69770E+03
 2.69980E+03
 2.66720E+03
 2.68590E+03
 2.69230E+03
 2.69150E+03
 2.71540E+03
 2.68700E+03
 2.69360E+03
 2.69650E+03
 2.71760E+03
 2.71390E+03
 2.69460E+03
 2.71670E+03
 2.69210E+03
 2.72890E+03
 2.71400E+03
 2.71190E+03
 2.71100E+03
 2.71610E+03
 2.69970E+03
 2.67930E+03
 2.71470E+03
 2.68920E+03
 2.68660E+03
 2.68230E+03
 2.65280E+03
 2.66980E+03
 2.66640E+03
 2.67040E+03
 2.65890E+03
 2.64980E+03
 2.64590E+03
 2.64090E+03
 2.64920E+03
 2.65710E+03
 2.64050E+03
 2.63570E+03
 2.64780E+03
 2.64020E+03
 2.63930E+03
 2.64520E+03
 2.63200E+03
 2.65650E+03
 2.64300E+03
 2.65210E+03
 2.63690E+03
 2.62590E+03
 2.63710E+03
 2.64280E+03
 2.63800E+03
 2.64440E+03
 2.64590E+03
 2.64890E+03
 2.63630E+03
 2.63050E+03
 2.61300E+03
 2.62750E+03
 2.61110E+03
 2.60790E+03
 2.59350E+03
 2.63840E+03
 2.62210E+03
 2.61290E+03
 2.61560E+03
 2.57900E+03
 2.59690E+03
 2.58480E+03
 2.58850E+03
 2.58130E+03
 2.60350E+03
 2.59680E+03
 2.58650E+03
 2.58150E+03
 2.58860E+03
 2.57040E+03
 2.57860E+03
 2.61300E+03
 2.57730E+03
 2.57600E+03
 2.56870E+03
 2.55840E+03
 2.55860E+03
 2.55750E+03
 2.54630E+03
 2.56320E+03
 2.54150E+03
 2.53850E+03
 2.55610E+03
 2.54380E+03
 2.53290E+03
 2.55100E+03
 2.54270E+03
 2.52670E+03
 2.53500E+03
 2.54220E+03
 2.51580E+03
 2.51340E+03
 2.53780E+03
 2.52300E+03
 2.51080E+03
 2.51420E+03
 2.51000E+03
 2.51390E+03
 2.51790E+03
 2.50970E+03
 2.49740E+03
 2.50440E+03
 2.49700E+03
 2.50920E+03
 2.50130E+03
 2.50590E+03
 2.52500E+03
 2.51160E+03
 2.53470E+03
 2.50750E+03
 2.50310E+03
 2.47380E+03
 2.49840E+03
 2.50190E+03
 2.49020E+03
 2.49770E+03
 2.49710E+03
 2.49580E+03
 2.50230E+03
 2.48260E+03
 2.50350E+03
 2.47620E+03
 2.46720E+03
 2.47840E+03
 2.49000E+03
 2.48820E+03
 2.50120E+03
 2.48410E+03
 2.50090E+03
 2.49350E+03
 2.50900E+03
 2.50990E+03
 2.51610E+03
 2.51730E+03
 2.51790E+03
 2.55380E+03
 2.54900E+03
 2.54130E+03
 2.55030E+03
 2.56070E+03
 2.55660E+03
 2.54840E+03
 2.55410E+03
 2.51830E+03
 2.53630E+03
 2.51420E+03
 2.50820E+03
 2.50310E+03
 2.51640E+03
 2.50680E+03
 2.47980E+03
 2.49050E+03
 2.49180E+03
 2.48130E+03
 2.47110E+03
 2.48330E+03
 2.46840E+03
 2.48010E+03
 2.49520E+03
 2.47690E+03
 2.50930E+03
 2.49080E+03
 2.47600E+03
 2.47850E+03
 2.49290E+03
 2.51460E+03
 2.50990E+03
 2.53310E+03
 2.51410E+03
 2.54240E+03
 2.54600E+03
 2.56130E+03
 2.57090E+03
 2.57930E+03
 2.58940E+03
 2.57380E+03
 2.58360E+03
 2.57130E+03
 2.55950E+03
 2.57930E+03
 2.55570E+03
 2.56980E+03
 2.55890E+03
 2.55280E+03
 2.54270E+03
 2.51730E+03
 2.54720E+03
 2.51900E+03
 2.51600E+03
 2.53830E+03
 2.49160E+03
 2.53650E+03
 2.51950E+03
 2.52890E+03
 2.51020E+03
 2.52260E+03
 2.50480E+03
 2.51130E+03
 2.50650E+03
 2.54260E+03
 2.50740E+03
 2.51400E+03
 2.49820E+03
 2.51200E+03
 2.52070E+03
 2.50480E+03
 2.50660E+03
 2.51530E+03
 2.50820E+03
 2.51190E+03
 2.53520E+03
 2.48490E+03
 2.50040E+03
 2.50620E+03
 2.50620E+03
 2.52040E+03
 2.50740E+03
 2.50500E+03
 2.50980E+03
 2.53620E+03
 2.50990E+03
 2.52370E+03
 2.51120E+03
 2.52380E+03
 2.49880E+03
 2.50490E+03
 2.49980E+03
 2.51070E+03
 2.49820E+03
 2.50790E+03
 2.50680E+03
 2.51250E+03
 2.52670E+03
 2.50380E+03
 2.52490E+03
 2.51390E+03
 2.55090E+03
 2.52440E+03
 2.52710E+03
 2.52510E+03
 2.53770E+03
 2.53680E+03
 2.53290E+03
 2.56150E+03
 2.52060E+03
 2.54630E+03
 2.55650E+03
 2.54690E+03
 2.55250E+03
 2.53560E+03
 2.55390E+03
 2.55960E+03
 2.57830E+03
 2.57180E+03
 2.58070E+03
 2.55730E+03
 2.60910E+03
 2.59790E+03
 2.59240E+03
 2.60830E+03
 2.58990E+03
 2.61930E+03
 2.63790E+03
 2.63250E+03
 2.63640E+03
 2.63160E+03
 2.66400E+03
 2.68950E+03
 2.67500E+03
 2.71420E+03
 2.73460E+03
 2.77010E+03
 2.76140E+03
 2.76270E+03
 2.77510E+03
 2.75180E+03
 2.73400E+03
 2.72150E+03
 2.67370E+03
 2.65850E+03
 2.62650E+03
 2.62280E+03
 2.62260E+03
 2.59690E+03
 2.56830E+03
 2.57660E+03
 2.55420E+03
 2.54960E+03
 2.54260E+03
 2.53990E+03
 2.52390E+03
 2.51980E+03
 2.51670E+03
 2.52490E+03
 2.51330E+03
 2.50070E+03
 2.48850E+03
 2.51850E+03
 2.48410E+03
 2.46260E+03
 2.49330E+03
 2.49170E+03
 2.45580E+03
 2.46600E+03
 2.45700E+03
 2.44690E+03
 2.45480E+03
 2.46020E+03
 2.46780E+03
 2.44510E+03
 2.45630E+03
 2.45770E+03
 2.43380E+03
 2.41620E+03
 2.42120E+03
 2.42550E+03
 2.41570E+03
 2.42490E+03
 2.41160E+03
 2.41330E+03
 2.40360E+03
 2.41680E+03
 2.41660E+03
 2.42070E+03
 2.40600E+03
 2.41930E+03
 2.42640E+03
 2.41440E+03
 2.40020E+03
 2.39330E+03
 2.44280E+03
 2.39620E+03
 2.42770E+03
 2.41380E+03
 2.39870E+03
 2.40590E+03
 2.39480E+03
 2.39300E+03
 2.38010E+03
 2.39340E+03
 2.40950E+03
 2.39390E+03
 2.41380E+03
 2.39570E+03
 2.38830E+03
 2.38730E+03
 2.36230E+03
 2.37190E+03
 2.37840E+03
 2.35190E+03
 2.34990E+03
 2.34580E+03
 2.34170E+03
 2.34550E+03
 2.33370E+03
 2.33470E+03
 2.33260E+03
 2.30840E+03
 2.30900E+03
 2.33930E+03
 2.32520E+03
 2.31770E+03
 2.32280E+03
 2.33110E+03
 2.33810E+03
 2.31490E+03
 2.31890E+03
 2.33810E+03
 2.34480E+03
 2.35920E+03
 2.35850E+03
 2.39580E+03
 2.41430E+03
 2.44690E+03
 2.52120E+03
 2.53920E+03
 2.51830E+03
 2.49190E+03
 2.44500E+03
 2.41600E+03
 2.40990E+03
 2.37060E+03
 2.34950E+03
 2.30130E+03
 2.28960E+03
 2.28130E+03
 2.25870E+03
 2.26390E+03
 2.23950E+03
 2.23780E+03
 2.25110E+03
 2.25230E+03
 2.22860E+03
 2.24020E+03
 2.23030E+03
 2.23740E+03
 2.24280E+03
 2.24210E+03
 2.27590E+03
 2.25870E+03
 2.29060E+03
 2.29850E+03
 2.33560E+03
 2.37210E+03
 2.42670E+03
 2.48970E+03
 2.56230E+03
 2.64430E+03
 2.70950E+03
 2.73510E+03
 2.70170E+03
 2.62520E+03
 2.50540E+03
 2.43310E+03
 2.39300E+03
 2.34750E+03
 2.32200E+03
 2.30070E+03
 2.26450E+03
 2.23530E+03
 2.23390E+03
 2.24590E+03
 2.23330E+03
 2.22230E+03
 2.18710E+03
 2.20760E+03
 2.20120E+03
 2.16880E+03
 2.19670E+03
 2.17830E+03
 2.17940E+03
 2.17200E+03
 2.15930E+03
 2.15970E+03
 2.15310E+03
 2.15610E+03
 2.15530E+03
 2.15470E+03
 2.14590E+03
 2.14440E+03
 2.14650E+03
 2.14780E+03
 2.14190E+03
 2.14430E+03
 2.14460E+03
 2.13530E+03
 2.14140E+03
 2.13620E+03
 2.15060E+03
 2.12030E+03
 2.14020E+03
 2.12110E+03
 2.12160E+03
 2.13030E+03
 2.10810E+03
 2.09810E+03
 2.08570E+03
 2.08890E+03
 2.08310E+03
 2.07410E+03
 2.07720E+03
 2.07760E+03
 2.08290E+03
 2.07550E+03
 2.06310E+03
 2.05570E+03
 2.06160E+03
 2.05860E+03
 2.03460E+03
 2.05660E+03
 2.02840E+03
 2.03590E+03
 2.02650E+03
 2.01450E+03
 1.99830E+03
 1.99800E+03
 2.00310E+03
 1.99320E+03
 1.99550E+03
 1.99210E+03
 1.97740E+03
 1.97330E+03
 1.96710E+03
 1.95550E+03
 1.96280E+03
 1.96540E+03
 1.95650E+03
 1.96340E+03
 1.94320E+03
 1.95370E+03
 1.95660E+03
 1.95470E+03
 1.95070E+03
 1.94590E+03
 1.94230E+03
 1.95700E+03
 1.94170E+03
 1.94020E+03
 1.94530E+03
 1.93880E+03
 1.93800E+03
 1.94560E+03
 1.92580E+03
 1.94070E+03
 1.94530E+03
 1.94090E+03
 1.93020E+03
 1.94840E+03
 1.93190E+03
 1.93140E+03
 1.93840E+03
 1.93710E+03
 1.94610E+03
 1.95670E+03
 1.97270E+03
 1.95020E+03
 1.97030E+03
 1.98220E+03
 1.99360E+03
 1.99010E+03
 1.98840E+03
 1.99300E+03
 2.01750E+03
 2.02520E+03
 2.03230E+03
 2.04950E+03
 2.06410E+03
 2.05220E+03
 2.08370E+03
 2.09060E+03
 2.09140E+03
 2.10320E+03
 2.13730E+03
 2.15330E+03
 2.16960E+03
 2.20150E+03
 2.22650E+03
 2.26410E+03
 2.30270E+03
 2.35290E+03
 2.40900E+03
 2.45420E+03
 2.54120E+03
 2.64110E+03
 2.73140E+03
 2.84740E+03
 2.99140E+03
 3.14390E+03
 3.34130E+03
 3.55630E+03
 3.82200E+03
 4.13900E+03
 4.54130E+03
 4.92520E+03
 5.44420E+03
 6.13910E+03
 6.88210E+03
 7.79240E+03
 8.83960E+03
 9.98070E+03
 1.12154E+04
 1.24424E+04
 1.36214E+04
 1.44484E+04
 1.49346E+04
 1.50389E+04
 1.48105E+04
 1.42679E+04
 1.34620E+04
 1.25005E+04
 1.16300E+04
 1.08561E+04
 1.00372E+04
 9.31700E+03
 8.63390E+03
 8.12290E+03
 7.60060E+03
 7.13520E+03
 6.72940E+03
 6.36730E+03
 6.05630E+03
 5.76770E+03
 5.54500E+03
 5.30030E+03
 5.12390E+03
 4.92350E+03
 4.75980E+03
 4.60020E+03
 4.50590E+03
 4.38130E+03
 4.22990E+03
 4.15080E+03
 4.05200E+03
 3.99990E+03
 3.89110E+03
 3.81950E+03
 3.76110E+03
 3.70090E+03
 3.64740E+03
 3.56780E+03
 3.52540E+03
 3.44290E+03
 3.42610E+03
 3.35340E+03
 3.30810E+03
 3.30460E+03
 3.24890E+03
 3.22260E+03
 3.17410E+03
 3.14970E+03
 3.10110E+03
 3.08610E+03
 3.04330E+03
 3.01340E+03
 2.99550E+03
 2.99960E+03
 2.92580E+03
 2.93570E+03
 2.89850E+03
 2.90990E+03
 2.86980E+03
 2.85720E+03
 2.86110E+03
 2.81690E+03
 2.79990E+03
 2.80710E+03
 2.76160E+03
 2.76960E+03
 2.76250E+03
 2.73830E+03
 2.71940E+03
 2.67740E+03
 2.68370E+03
 2.66880E+03
 2.68190E+03
 2.67590E+03
 2.63920E+03
 2.63860E+03
 2.63350E+03
 2.60540E+03
 2.60010E+03
 2.61400E+03
 2.58300E+03
 2.55370E+03
 2.57260E+03
 2.56410E+03
 2.53410E+03
 2.53260E+03
 2.51770E+03
 2.51480E+03
 2.50020E+03
 2.49440E+03
 2.51680E+03
 2.49720E+03
 2.48480E+03
 2.49070E+03
 2.48330E+03
 2.46510E+03
 2.44980E+03
 2.46080E+03
 2.43350E+03
 2.44630E+03
 2.44340E+03
 2.43470E+03
 2.42850E+03
 2.41850E+03
 2.40310E+03
 2.42990E+03
 2.41190E+03
 2.38410E+03
 2.39350E+03
 2.38810E+03
 2.40670E+03
 2.40520E+03
 2.38910E+03
 2.36160E+03
 2.37600E+03
 2.35880E+03
 2.38070E+03
 2.36940E+03
 2.36660E+03
 2.35860E+03
 2.35490E+03
 2.36550E+03
 2.35600E+03
 2.36950E+03
 2.35630E+03
 2.38180E+03
 2.36440E+03
 2.38030E+03
 2.38640E+03
 2.39370E+03
 2.40330E+03
 2.43240E+03
 2.46270E+03
 2.49160E+03
 2.51030E+03
 2.55170E+03
 2.56500E+03
 2.59580E+03
 2.56830E+03
 2.57440E+03
 2.57560E+03
 2.55850E+03
 2.52850E+03
 2.53420E+03
 2.51320E+03
 2.51310E+03
 2.47830E+03
 2.48820E+03
 2.46490E+03
 2.45340E+03
 2.41710E+03
 2.41770E+03
 2.41220E+03
 2.38370E+03
 2.38990E+03
 2.38520E+03
 2.36830E+03
 2.36540E+03
 2.37090E+03
 2.36350E+03
 2.37040E+03
 2.37210E+03
 2.35010E+03
 2.35770E+03
 2.35030E+03
 2.36720E+03
 2.36150E+03
 2.35840E+03
 2.39310E+03
 2.37390E+03
 2.37520E+03
 2.36540E+03
 2.36270E+03
 2.34600E+03
 2.34180E+03
 2.34590E+03
 2.31140E+03
 2.32010E+03
 2.32760E+03
 2.33180E+03
 2.29420E+03
 2.30350E+03
 2.30500E+03
 2.30790E+03
 2.30720E+03
 2.29390E+03
 2.29710E+03
 2.29500E+03
 2.29060E+03
 2.28120E+03
 2.27380E+03
 2.27350E+03
 2.28960E+03
 2.27680E+03
 2.27400E+03
 2.29370E+03
 2.27550E+03
 2.27070E+03
 2.27460E+03
 2.28000E+03
 2.26760E+03
 2.26900E+03
 2.26280E+03
 2.26170E+03
 2.29210E+03
 2.27120E+03
 2.28410E+03
 2.26510E+03
 2.28740E+03
 2.27180E+03
 2.26480E+03
 2.26970E+03
 2.26410E+03
 2.26980E+03
 2.26490E+03
 2.25160E+03
 2.25820E+03
 2.26240E+03
 2.24460E+03
 2.25920E+03
 2.23860E+03
 2.25790E+03
 2.24310E+03
 2.24480E+03
 2.24460E+03
 2.22800E+03
 2.23060E+03
 2.22910E+03
 2.21980E+03
 2.21530E+03
 2.21010E+03
 2.23160E+03
 2.22990E+03
 2.20540E+03
 2.21950E+03
 2.21460E+03
 2.20180E+03
 2.19620E+03
 2.21440E+03
 2.20330E+03
 2.18820E+03
 2.18780E+03
 2.19550E+03
 2.18910E+03
 2.19280E+03
 2.18770E+03
 2.19250E+03
 2.18820E+03
 2.18960E+03
 2.17610E+03
 2.16830E+03
 2.16810E+03
 2.16830E+03
 2.17430E+03
 2.17870E+03
 2.16370E+03
 2.16210E+03
 2.15770E+03
 2.16210E+03
 2.16550E+03
 2.16550E+03
 2.15370E+03
 2.16140E+03
 2.16800E+03
 2.16550E+03
 2.13810E+03
 2.15430E+03
 2.15800E+03
 2.14440E+03
 2.15610E+03
 2.13270E+03
 2.13740E+03
 2.14660E+03
 2.13490E+03
 2.13720E+03
 2.13050E+03
 2.14610E+03
 2.12900E+03
 2.13230E+03
 2.13810E+03
 2.14210E+03
 2.13800E+03
 2.15610E+03
 2.13150E+03
 2.15440E+03
 2.15070E+03
 2.14180E+03
 2.13610E+03
 2.14390E+03
 2.14660E+03
 2.13550E+03
 2.13440E+03
 2.13450E+03
 2.13490E+03
 2.14590E+03
 2.14910E+03
 2.14970E+03
 2.14460E+03
 2.14860E+03
 2.14480E+03
 2.14850E+03
 2.15270E+03
 2.12810E+03
 2.14670E+03
 2.14710E+03
 2.15150E+03
 2.14280E+03
 2.14650E+03
 2.15680E+03
 2.14700E+03
 2.12740E+03
 2.15720E+03
 2.14850E+03
 2.13200E+03
 2.15230E+03
 2.13760E+03
 2.13650E+03
 2.12510E+03
 2.11420E+03
 2.11850E+03
 2.12630E+03
 2.12290E+03
 2.13900E+03
 2.11370E+03
 2.12970E+03
 2.13340E+03
 2.12500E+03
 2.12400E+03
 2.10750E+03
 2.11490E+03
 2.12580E+03
 2.09390E+03
 2.11670E+03
 2.10810E+03
 2.10590E+03
 2.11630E+03
 2.11340E+03
 2.11820E+03
 2.10720E+03
 2.11920E+03
 2.12070E+03
 2.10380E+03
 2.10390E+03
 2.10230E+03
 2.11610E+03
 2.12200E+03
 2.12030E+03
 2.10390E+03
 2.09290E+03
 2.10810E+03
 2.10040E+03
 2.10200E+03
 2.10380E+03
 2.11360E+03
 2.10250E+03
 2.10950E+03
 2.09290E+03
 2.08370E+03
 2.10310E+03
 2.08830E+03
 2.10770E+03
 2.09530E+03
 2.10590E+03
 2.10020E+03
 2.11660E+03
 2.10200E+03
 2.10950E+03
 2.10320E+03
 2.11650E+03
 2.12100E+03
 2.11770E+03
 2.10800E+03
 2.12590E+03
 2.11160E+03
 2.11600E+03
 2.09070E+03
 2.10680E+03
 2.10560E+03
 2.10230E+03
 2.10230E+03
 2.10400E+03
 2.10110E+03
 2.10280E+03
 2.11340E+03
 2.11010E+03
 2.10320E+03
 2.09640E+03
 2.11990E+03
 2.10490E+03
 2.10890E+03
 2.09290E+03
 2.09160E+03
 2.09640E+03
 2.09860E+03
 2.10070E+03
 2.10270E+03
 2.08770E+03
 2.11050E+03
 2.10260E+03
 2.10160E+03
 2.10890E+03
 2.10170E+03
 2.10230E+03
 2.10370E+03
 2.11470E+03
 2.10780E+03
 2.13170E+03
 2.09500E+03
 2.09320E+03
 2.10740E+03
 2.09960E+03
 2.10680E+03
 2.11640E+03
 2.10440E+03
 2.09550E+03
 2.10080E+03
 2.10880E+03
 2.09870E+03
 2.11400E+03
 2.11570E+03
 2.12690E+03
 2.11300E+03
 2.10680E+03
 2.12400E+03
 2.11200E+03
 2.11790E+03
 2.10440E+03
 2.11080E+03
 2.11070E+03
 2.10660E+03
 2.09980E+03
 2.10710E+03
 2.10140E+03
 2.10450E+03
 2.11650E+03
 2.09750E+03
 2.11020E+03
 2.08770E+03
 2.11350E+03
 2.09510E+03
 2.10490E+03
 2.09360E+03
 2.09100E+03
 2.09350E+03
 2.09260E+03
 2.10300E+03
 2.09370E+03
 2.08810E+03
 2.08630E+03
 2.08370E+03
 2.07410E+03
 2.08140E+03
 2.08590E+03
 2.08190E+03
 2.06790E+03
 2.07300E+03
 2.08020E+03
 2.07310E+03
 2.07610E+03
 2.06070E+03
 2.06980E+03
 2.08060E+03
 2.07840E+03
 2.07210E+03
 2.06480E+03
 2.05880E+03
 2.06150E+03
 2.06390E+03
 2.06820E+03
 2.05950E+03
 2.05190E+03
 2.05150E+03
 2.06370E+03
 2.05230E+03
 2.06890E+03
 2.07520E+03
 2.06910E+03
 2.06930E+03
 2.06880E+03
 2.06300E+03
 2.07760E+03
 2.06110E+03
 2.05610E+03
 2.05230E+03
 2.06900E+03
 2.05020E+03
 2.04870E+03
 2.05480E+03
 2.05140E+03
 2.04990E+03
 2.05580E+03
 2.07190E+03
 2.05690E+03
 2.06400E+03
 2.06390E+03
 2.05450E+03
 2.06230E+03
 2.05320E+03
 2.06550E+03
 2.05410E+03
 2.05430E+03
 2.05300E+03
 2.06410E+03
 2.05600E+03
 2.05330E+03
 2.05050E+03
 2.06350E+03
 2.05950E+03
 2.04650E+03
 2.05730E+03
 2.05490E+03
 2.07020E+03
 2.05070E+03
 2.04420E+03
 2.05730E+03
 2.05400E+03
 2.06850E+03
 2.06360E+03
 2.04420E+03
 2.05210E+03
 2.04750E+03
 2.04950E+03
 2.05610E+03
 2.04680E+03
 2.04960E+03
 2.05340E+03
 2.05140E+03
 2.06790E+03
 2.05830E+03
 2.05010E+03
 2.05500E+03
 2.05670E+03
 2.04140E+03
 2.04690E+03
 2.04040E+03
 2.05840E+03
 2.04320E+03
 2.07480E+03
 2.05110E+03
 2.06070E+03
 2.05570E+03
 2.04310E+03
 2.04210E+03
 2.05620E+03
 2.05200E+03
 2.05910E+03
 2.03920E+03
 2.04340E+03
 2.04310E+03
 2.05420E+03
 2.04880E+03
 2.03960E+03
 2.05110E+03
 2.05200E+03
 2.05680E+03
 2.05430E+03
 2.06070E+03
 2.05790E+03
 2.04630E+03
 2.04220E+03
 2.05540E+03
 2.06770E+03
 2.06240E+03
 2.05660E+03
 2.07540E+03
 2.05770E+03
 2.06720E+03
 2.04590E+03
 2.06330E+03
 2.05940E+03
 2.06910E+03
 2.07700E+03
 2.07040E+03
 2.07930E+03
 2.08310E+03
 2.09830E+03
 2.08090E+03
 2.08210E+03
 2.10200E+03
 2.11090E+03
 2.11240E+03
 2.11560E+03
 2.14400E+03
 2.15580E+03
 2.16210E+03
 2.21200E+03
 2.22350E+03
 2.26700E+03
 2.26820E+03
 2.32920E+03
 2.34640E+03
 2.35150E+03
 2.39230E+03
 2.41250E+03
 2.44990E+03
 2.46970E+03
 2.50360E+03
 2.54680E+03
 2.57590E+03
 2.60330E+03
 2.64960E+03
 2.67610E+03
 2.68570E+03
 2.72140E+03
 2.72920E+03
 2.74820E+03
 2.74850E+03
 2.71960E+03
 2.72720E+03
 2.70320E+03
 2.70710E+03
 2.71220E+03
 2.71080E+03
 2.69420E+03
 2.68390E+03
 2.70650E+03
 2.69010E+03
 2.70690E+03
 2.68020E+03
 2.69020E+03
 2.69850E+03
 2.70940E+03
 2.68770E+03
 2.69680E+03
 2.68320E+03
 2.68900E+03
 2.68880E+03
 2.70280E+03
 2.70250E+03
 2.70820E+03
 2.69480E+03
 2.70940E+03
 2.70890E+03
 2.70350E+03
 2.70520E+03
 2.69730E+03
 2.71410E+03
 2.73820E+03
 2.69730E+03
 2.74100E+03
 2.70320E+03
 2.70630E+03
 2.75340E+03
 2.70150E+03
 2.73790E+03
 2.71110E+03
 2.73300E+03
 2.72490E+03
 2.71400E+03
 2.73660E+03
 2.71160E+03
 2.73260E+03
 2.74810E+03
 2.73660E+03
 2.74290E+03
 2.74060E+03
 2.73610E+03
 2.74160E+03
 2.71900E+03
 2.71190E+03
 2.72270E+03
 2.71220E+03
 2.71340E+03
 2.72190E+03
 2.71220E+03
 2.71690E+03
 2.67550E+03
 2.68460E+03
 2.68070E+03
 2.63950E+03
 2.60790E+03
 2.60080E+03
 2.57260E+03
 2.53430E+03
 2.50070E+03
 2.48410E+03
 2.45240E+03
 2.42070E+03
 2.38750E+03
 2.35880E+03
 2.32890E+03
 2.29910E+03
 2.27810E+03
 2.25260E+03
 2.25370E+03
 2.22970E+03
 2.23900E+03
 2.21320E+03
 2.19460E+03
 2.20280E+03
 2.19550E+03
 2.16110E+03
 2.16450E+03
 2.15930E+03
 2.14470E+03
 2.13900E+03
 2.13040E+03
 2.13350E+03
 2.11410E+03
 2.10550E+03
 2.09950E+03
 2.10370E+03
 2.09490E+03
 2.08200E+03
 2.06400E+03
 2.07730E+03
 2.05910E+03
 2.06250E+03
 2.08540E+03
 2.06250E+03
 2.04020E+03
 2.04750E+03
 2.03480E+03
 2.03670E+03
 2.03470E+03
 2.02410E+03
 2.02760E+03
 2.01670E+03
 2.01840E+03
 2.01640E+03
 2.00070E+03
 2.00060E+03
 1.99420E+03
 1.99250E+03
 1.99480E+03
 1.99160E+03
 1.97870E+03
 1.97540E+03
 1.96030E+03
 1.97450E+03
 1.96880E+03
 1.95400E+03
 1.94510E+03
 1.95340E+03
 1.94160E+03
 1.94510E+03
 1.94330E+03
 1.93350E+03
 1.92240E+03
 1.93780E+03
 1.92910E+03
 1.92570E+03
 1.92100E+03
 1.91950E+03
 1.92020E+03
 1.90960E+03
 1.91150E+03
 1.89900E+03
 1.91420E+03
 1.90680E+03
 1.89990E+03
 1.89500E+03
 1.90660E+03
 1.89960E+03
 1.89750E+03
 1.90170E+03
 1.90660E+03
 1.89660E+03
 1.89940E+03
 1.90020E+03
 1.88790E+03
 1.89180E+03
 1.88730E+03
 1.89060E+03
 1.88600E+03
 1.88270E+03
 1.89380E+03
 1.88830E+03
 1.88130E+03
 1.87970E+03
 1.89250E+03
 1.88160E+03
 1.89480E+03
 1.87780E+03
 1.89660E+03
 1.88400E+03
 1.88170E+03
 1.88590E+03
 1.89230E+03
 1.88650E+03
 1.87580E+03
 1.88140E+03
 1.87320E+03
 1.87040E+03
 1.86830E+03
 1.87680E+03
 1.87600E+03
 1.87700E+03
 1.88410E+03
 1.88570E+03
 1.87580E+03
 1.88270E+03
 1.87530E+03
 1.87980E+03
 1.87890E+03
 1.87140E+03
 1.87330E+03
 1.88180E+03
 1.87340E+03
 1.87560E+03
 1.88070E+03
 1.88940E+03
 1.87420E+03
 1.87860E+03
 1.86940E+03
 1.87180E+03
 1.86830E+03
 1.87400E+03
 1.87030E+03
 1.86630E+03
 1.88260E+03
 1.87350E+03
 1.88230E+03
 1.86750E+03
 1.88040E+03
 1.88700E+03
 1.86110E+03
 1.86910E+03
 1.86800E+03
 1.88420E+03
 1.87040E+03
 1.86360E+03
 1.87690E+03
 1.86530E+03
 1.88350E+03
 1.86870E+03
 1.86810E+03
 1.86950E+03
 1.86440E+03
 1.87780E+03
 1.86950E+03
 1.87390E+03
 1.88040E+03
 1.86670E+03
 1.86730E+03
 1.85380E+03
 1.86570E+03
 1.86010E+03
 1.86910E+03
 1.86670E+03
 1.86760E+03
 1.87170E+03
 1.87380E+03
 1.86320E+03
