 1.58050E+03
 1.58090E+03
 1.57960E+03
 1.58130E+03
 1.58230E+03
 1.58110E+03
 1.58120E+03
 1.57880E+03
 1.58060E+03
 1.58110E+03
 1.58300E+03
 1.58120E+03
 1.58050E+03
 1.58010E+03
 1.58010E+03
 1.57990E+03
 1.57950E+03
 1.58250E+03
 1.58100E+03
 1.58330E+03
 1.58160E+03
 1.58070E+03
 1.57690E+03
 1.57940E+03
 1.58250E+03
 1.58190E+03
 1.58000E+03
 1.58060E+03
 1.58170E+03
 1.58190E+03
 1.57980E+03
 1.57940E+03
 1.58210E+03
 1.58080E+03
 1.57960E+03
 1.57990E+03
 1.58260E+03
 1.58180E+03
 1.58220E+03
 1.58040E+03
 1.58500E+03
 1.57970E+03
 1.58130E+03
 1.57830E+03
 1.58180E+03
 1.57950E+03
 1.58250E+03
 1.58170E+03
 1.58250E+03
 1.57740E+03
 1.58200E+03
 1.58040E+03
 1.57920E+03
 1.58050E+03
 1.58130E+03
 1.58110E+03
 1.58270E+03
 1.58360E+03
 1.58260E+03
 1.58020E+03
 1.58140E+03
 1.58140E+03
 1.57940E+03
 1.58320E+03
 1.58060E+03
 1.58080E+03
 1.58060E+03
 1.58290E+03
 1.58150E+03
 1.57970E+03
 1.58170E+03
 1.58220E+03
 1.58430E+03
 1.58160E+03
 1.58180E+03
 1.58370E+03
 1.61010E+03
 1.67900E+03
 1.76980E+03
 1.74650E+03
 1.63130E+03
 1.58710E+03
 1.58270E+03
 1.58180E+03
 1.58210E+03
 1.58010E+03
 1.58210E+03
 1.58140E+03
 1.58050E+03
 1.58220E+03
 1.58330E+03
 1.58150E+03
 1.58200E+03
 1.58030E+03
 1.57940E+03
 1.58070E+03
 1.58010E+03
 1.58140E+03
 1.58210E+03
 1.58380E+03
 1.58250E+03
 1.58230E+03
 1.58180E+03
 1.58340E+03
 1.58030E+03
 1.58340E+03
 1.58290E+03
 1.58270E+03
 1.58190E+03
 1.58230E+03
 1.58100E+03
 1.58260E+03
 1.58260E+03
 1.58260E+03
 1.58280E+03
 1.58240E+03
 1.58230E+03
 1.58290E+03
 1.58080E+03
 1.58100E+03
 1.58250E+03
 1.58300E+03
 1.58210E+03
 1.58120E+03
 1.58250E+03
 1.58260E+03
 1.58200E+03
 1.58200E+03
 1.58140E+03
 1.58080E+03
 1.58220E+03
 1.58180E+03
 1.58230E+03
 1.58160E+03
 1.58210E+03
 1.58090E+03
 1.58280E+03
 1.58330E+03
 1.58110E+03
 1.58170E+03
 1.58120E+03
 1.58090E+03
 1.58230E+03
 1.58410E+03
 1.57940E+03
 1.58380E+03
 1.58340E+03
 1.58310E+03
 1.58190E+03
 1.58610E+03
 1.58580E+03
 1.58920E+03
 1.58970E+03
 1.59590E+03
 1.60090E+03
 1.60750E+03
 1.61600E+03
 1.62740E+03
 1.64160E+03
 1.66500E+03
 1.68540E+03
 1.71270E+03
 1.74540E+03
 1.78220E+03
 1.82560E+03
 1.87580E+03
 1.92500E+03
 1.96350E+03
 2.02730E+03
 2.11620E+03
 2.16770E+03
 2.28690E+03
 2.33660E+03
 2.45950E+03
 2.57420E+03
 2.66350E+03
 2.75320E+03
 2.87910E+03
 2.95180E+03
 3.03830E+03
 3.11700E+03
 3.14750E+03
 3.20060E+03
 3.24020E+03
 3.24760E+03
 3.26310E+03
 3.27420E+03
 3.24410E+03
 3.21810E+03
 3.26170E+03
 3.26350E+03
 3.24670E+03
 3.26200E+03
 3.27150E+03
 3.25710E+03
 3.26770E+03
 3.28960E+03
 3.28800E+03
 3.28500E+03
 3.30740E+03
 3.32080E+03
 3.32460E+03
 3.31970E+03
 3.32680E+03
 3.29450E+03
 3.30080E+03
 3.28770E+03
 3.30820E+03
 3.29930E+03
 3.29420E+03
 3.28060E+03
 3.28230E+03
 3.28150E+03
 3.25900E+03
 3.23130E+03
 3.25030E+03
 3.24440E+03
 3.21230E+03
 3.20780E+03
 3.21430E+03
 3.20590E+03
 3.19150E+03
 3.16450E+03
 3.19370E+03
 3.17630E+03
 3.15130E+03
 3.19150E+03
 3.16190E+03
 3.20930E+03
 3.17810E+03
 3.18460E+03
 3.15550E+03
 3.17950E+03
 3.20180E+03
 3.15970E+03
 3.17460E+03
 3.15680E+03
 3.15470E+03
 3.16350E+03
 3.13480E+03
 3.16320E+03
 3.16050E+03
 3.15370E+03
 3.12930E+03
 3.12660E+03
 3.15580E+03
 3.10630E+03
 3.11150E+03
 3.11970E+03
 3.11590E+03
 3.11030E+03
 3.13670E+03
 3.14690E+03
 3.12580E+03
 3.12610E+03
 3.12760E+03
 3.09710E+03
 3.05690E+03
 3.11060E+03
 3.12110E+03
 3.10370E+03
 3.08980E+03
 3.08270E+03
 3.12370E+03
 3.08320E+03
 3.08380E+03
 3.09510E+03
 3.09510E+03
 3.07990E+03
 3.03530E+03
 3.06900E+03
 3.06330E+03
 3.08540E+03
 3.05400E+03
 3.06170E+03
 3.04370E+03
 3.04040E+03
 3.03600E+03
 3.04370E+03
 3.04290E+03
 3.04360E+03
 3.01770E+03
 3.03630E+03
 2.98210E+03
 2.99150E+03
 2.99810E+03
 2.98520E+03
 2.98280E+03
 2.97770E+03
 2.97540E+03
 2.98730E+03
 2.97590E+03
 2.94650E+03
 2.96400E+03
 2.97310E+03
 2.93900E+03
 2.92900E+03
 2.96440E+03
 2.94970E+03
 2.93770E+03
 2.96080E+03
 2.95810E+03
 2.93670E+03
 2.92750E+03
 2.96020E+03
 2.95360E+03
 2.94040E+03
 2.93820E+03
 2.93450E+03
 2.91640E+03
 2.92160E+03
 2.93810E+03
 2.93830E+03
 2.91950E+03
 2.91550E+03
 2.90370E+03
 2.91790E+03
 2.88760E+03
 2.90940E+03
 2.92390E+03
 2.94290E+03
 2.90990E+03
 2.89520E+03
 2.92110E+03
 2.88290E+03
 2.92510E+03
 2.89880E+03
 2.91480E+03
 2.89510E+03
 2.90060E+03
 2.89490E+03
 2.90270E+03
 2.88580E+03
 2.88110E+03
 2.91740E+03
 2.88260E+03
 2.90010E+03
 2.90750E+03
 2.91250E+03
 2.90360E+03
 2.91000E+03
 2.90630E+03
 2.92020E+03
 2.91370E+03
 2.91750E+03
 2.89350E+03
 2.90230E+03
 2.93350E+03
 2.93040E+03
 2.93180E+03
 2.91990E+03
 2.94020E+03
 2.95110E+03
 2.93850E+03
 2.90950E+03
 2.96420E+03
 2.94540E+03
 2.99260E+03
 2.95320E+03
 2.95410E+03
 2.96910E+03
 2.98520E+03
 2.98840E+03
 3.00650E+03
 3.01310E+03
 3.05940E+03
 3.05560E+03
 3.10850E+03
 3.09290E+03
 3.11140E+03
 3.09680E+03
 3.08930E+03
 3.10170E+03
 3.07950E+03
 3.04400E+03
 3.03050E+03
 3.04670E+03
 3.04050E+03
 3.08530E+03
 3.04560E+03
 3.02480E+03
 3.00610E+03
 3.01520E+03
 2.98410E+03
 2.98730E+03
 2.97750E+03
 2.99090E+03
 2.98420E+03
 2.98330E+03
 2.97300E+03
 3.00130E+03
 2.98000E+03
 2.95430E+03
 2.97890E+03
 2.97230E+03
 2.98290E+03
 2.95570E+03
 3.00680E+03
 2.97520E+03
 2.96240E+03
 2.97550E+03
 2.96360E+03
 2.96160E+03
 2.95410E+03
 2.97070E+03
 2.97590E+03
 2.95850E+03
 2.95770E+03
 2.97720E+03
 2.95130E+03
 2.95100E+03
 2.95100E+03
 2.95950E+03
 2.94660E+03
 2.96140E+03
 2.94550E+03
 2.98140E+03
 2.97190E+03
 2.94960E+03
 2.95480E+03
 2.97620E+03
 2.93640E+03
 2.94740E+03
 2.91960E+03
 2.95560E+03
 2.94100E+03
 2.95210E+03
 2.95390E+03
 2.96700E+03
 2.97110E+03
 2.97310E+03
 2.97890E+03
 2.96000E+03
 2.98960E+03
 2.96210E+03
 2.96580E+03
 2.98800E+03
 2.99870E+03
 2.98120E+03
 2.97800E+03
 2.99280E+03
 2.98660E+03
 3.02670E+03
 3.02270E+03
 3.02250E+03
 3.02380E+03
 3.06290E+03
 3.02130E+03
 3.06240E+03
 3.04920E+03
 3.08770E+03
 3.07390E+03
 3.08600E+03
 3.05780E+03
 3.08400E+03
 3.09290E+03
 3.11790E+03
 3.13130E+03
 3.14390E+03
 3.16490E+03
 3.19420E+03
 3.21430E+03
 3.24140E+03
 3.28940E+03
 3.29460E+03
 3.31700E+03
 3.32220E+03
 3.38780E+03
 3.36370E+03
 3.36480E+03
 3.32360E+03
 3.27330E+03
 3.21670E+03
 3.19170E+03
 3.15220E+03
 3.13930E+03
 3.11060E+03
 3.06950E+03
 3.07580E+03
 3.04830E+03
 3.00990E+03
 3.04680E+03
 3.02160E+03
 2.99540E+03
 2.98210E+03
 3.00260E+03
 2.96750E+03
 2.96360E+03
 2.93890E+03
 2.93760E+03
 2.93010E+03
 2.92720E+03
 2.93160E+03
 2.91780E+03
 2.86680E+03
 2.87120E+03
 2.88750E+03
 2.90560E+03
 2.89510E+03
 2.84990E+03
 2.84970E+03
 2.84810E+03
 2.85130E+03
 2.80940E+03
 2.82710E+03
 2.83100E+03
 2.82460E+03
 2.83290E+03
 2.83610E+03
 2.80550E+03
 2.80500E+03
 2.81120E+03
 2.81480E+03
 2.78820E+03
 2.77680E+03
 2.77260E+03
 2.76030E+03
 2.76900E+03
 2.75990E+03
 2.78440E+03
 2.76600E+03
 2.75890E+03
 2.76290E+03
 2.76820E+03
 2.75880E+03
 2.75080E+03
 2.74870E+03
 2.74470E+03
 2.73730E+03
 2.73730E+03
 2.73050E+03
 2.74220E+03
 2.71820E+03
 2.73390E+03
 2.72660E+03
 2.71230E+03
 2.71580E+03
 2.70540E+03
 2.73620E+03
 2.71050E+03
 2.70340E+03
 2.69530E+03
 2.70570E+03
 2.68300E+03
 2.70220E+03
 2.70010E+03
 2.70250E+03
 2.70230E+03
 2.72240E+03
 2.70560E+03
 2.70650E+03
 2.70290E+03
 2.69860E+03
 2.68680E+03
 2.71260E+03
 2.70860E+03
 2.72180E+03
 2.71300E+03
 2.71700E+03
 2.72250E+03
 2.73540E+03
 2.73980E+03
 2.70720E+03
 2.72770E+03
 2.74450E+03
 2.73900E+03
 2.74850E+03
 2.77990E+03
 2.76970E+03
 2.77950E+03
 2.79620E+03
 2.78520E+03
 2.81530E+03
 2.82720E+03
 2.85640E+03
 2.86130E+03
 2.82540E+03
 2.80850E+03
 2.77380E+03
 2.67760E+03
 2.66490E+03
 2.60790E+03
 2.57390E+03
 2.59720E+03
 2.56390E+03
 2.55130E+03
 2.54340E+03
 2.55990E+03
 2.53830E+03
 2.55850E+03
 2.55830E+03
 2.54710E+03
 2.54310E+03
 2.59350E+03
 2.58940E+03
 2.59300E+03
 2.63760E+03
 2.67300E+03
 2.71300E+03
 2.82030E+03
 2.93370E+03
 3.05700E+03
 3.11150E+03
 3.15850E+03
 3.13870E+03
 3.04610E+03
 2.95820E+03
 2.90160E+03
 2.83390E+03
 2.76540E+03
 2.75130E+03
 2.69270E+03
 2.68000E+03
 2.63080E+03
 2.61500E+03
 2.60930E+03
 2.58880E+03
 2.56800E+03
 2.53220E+03
 2.52710E+03
 2.49820E+03
 2.49070E+03
 2.48410E+03
 2.49540E+03
 2.45110E+03
 2.45990E+03
 2.43360E+03
 2.44120E+03
 2.43170E+03
 2.43150E+03
 2.41550E+03
 2.42520E+03
 2.42550E+03
 2.39720E+03
 2.41100E+03
 2.41580E+03
 2.40660E+03
 2.40830E+03
 2.40350E+03
 2.40140E+03
 2.40510E+03
 2.39470E+03
 2.40530E+03
 2.42280E+03
 2.39790E+03
 2.38300E+03
 2.36620E+03
 2.36700E+03
 2.34490E+03
 2.35740E+03
 2.31790E+03
 2.31920E+03
 2.29920E+03
 2.30950E+03
 2.29150E+03
 2.30080E+03
 2.27320E+03
 2.27810E+03
 2.27350E+03
 2.26300E+03
 2.25840E+03
 2.25960E+03
 2.21850E+03
 2.25080E+03
 2.24100E+03
 2.23440E+03
 2.22200E+03
 2.21770E+03
 2.22210E+03
 2.19890E+03
 2.19130E+03
 2.19460E+03
 2.17970E+03
 2.17020E+03
 2.15870E+03
 2.15390E+03
 2.12450E+03
 2.14310E+03
 2.14650E+03
 2.14130E+03
 2.12030E+03
 2.13910E+03
 2.11770E+03
 2.13370E+03
 2.12740E+03
 2.13060E+03
 2.11810E+03
 2.11930E+03
 2.12580E+03
 2.13380E+03
 2.12190E+03
 2.14190E+03
 2.11840E+03
 2.13040E+03
 2.10800E+03
 2.10820E+03
 2.11090E+03
 2.09820E+03
 2.09130E+03
 2.10360E+03
 2.09460E+03
 2.10680E+03
 2.09960E+03
 2.09570E+03
 2.10200E+03
 2.10540E+03
 2.11040E+03
 2.11780E+03
 2.12720E+03
 2.13270E+03
 2.14470E+03
 2.14040E+03
 2.14400E+03
 2.16620E+03
 2.17280E+03
 2.19110E+03
 2.19820E+03
 2.22270E+03
 2.20850E+03
 2.21840E+03
 2.25000E+03
 2.26420E+03
 2.26540E+03
 2.28650E+03
 2.31490E+03
 2.35950E+03
 2.37040E+03
 2.40000E+03
 2.42710E+03
 2.49730E+03
 2.55730E+03
 2.58820E+03
 2.65800E+03
 2.75070E+03
 2.84280E+03
 2.93940E+03
 3.08370E+03
 3.19640E+03
 3.34910E+03
 3.53030E+03
 3.72000E+03
 3.97530E+03
 4.32890E+03
 4.66390E+03
 5.03280E+03
 5.50040E+03
 6.06270E+03
 6.74150E+03
 7.59270E+03
 8.53410E+03
 9.68880E+03
 1.10335E+04
 1.26723E+04
 1.42909E+04
 1.60746E+04
 1.78702E+04
 1.93929E+04
 2.07657E+04
 2.12982E+04
 2.14588E+04
 2.10663E+04
 2.03391E+04
 1.92499E+04
 1.79385E+04
 1.66694E+04
 1.54898E+04
 1.42317E+04
 1.32569E+04
 1.23029E+04
 1.14411E+04
 1.06703E+04
 1.00507E+04
 9.43640E+03
 8.89100E+03
 8.37690E+03
 7.99490E+03
 7.62310E+03
 7.31920E+03
 6.98630E+03
 6.73670E+03
 6.51480E+03
 6.29610E+03
 6.10220E+03
 5.88410E+03
 5.65690E+03
 5.55040E+03
 5.38660E+03
 5.23110E+03
 5.15580E+03
 5.03730E+03
 4.94440E+03
 4.82900E+03
 4.75290E+03
 4.65720E+03
 4.57730E+03
 4.50460E+03
 4.39820E+03
 4.34380E+03
 4.27070E+03
 4.21750E+03
 4.15100E+03
 4.11560E+03
 4.03660E+03
 3.99180E+03
 3.95120E+03
 3.93620E+03
 3.86610E+03
 3.82140E+03
 3.73890E+03
 3.73740E+03
 3.67370E+03
 3.64050E+03
 3.64580E+03
 3.62870E+03
 3.53870E+03
 3.54850E+03
 3.51820E+03
 3.45590E+03
 3.44980E+03
 3.43440E+03
 3.37090E+03
 3.37060E+03
 3.36490E+03
 3.32630E+03
 3.32310E+03
 3.30180E+03
 3.25870E+03
 3.24820E+03
 3.21190E+03
 3.24210E+03
 3.19020E+03
 3.21080E+03
 3.15420E+03
 3.14110E+03
 3.14060E+03
 3.11540E+03
 3.09890E+03
 3.10500E+03
 3.05020E+03
 3.06320E+03
 3.03480E+03
 3.03760E+03
 3.02780E+03
 3.01180E+03
 3.00740E+03
 3.01300E+03
 2.97710E+03
 2.95140E+03
 2.94570E+03
 2.96700E+03
 2.92880E+03
 2.93810E+03
 2.90360E+03
 2.91010E+03
 2.90880E+03
 2.88540E+03
 2.91360E+03
 2.88680E+03
 2.88920E+03
 2.88750E+03
 2.86680E+03
 2.87310E+03
 2.86440E+03
 2.87180E+03
 2.84950E+03
 2.83270E+03
 2.82180E+03
 2.83690E+03
 2.85060E+03
 2.83850E+03
 2.80580E+03
 2.80410E+03
 2.80170E+03
 2.81350E+03
 2.79380E+03
 2.79800E+03
 2.81280E+03
 2.82570E+03
 2.78620E+03
 2.78660E+03
 2.80370E+03
 2.80370E+03
 2.79550E+03
 2.81790E+03
 2.81480E+03
 2.85850E+03
 2.89100E+03
 2.92520E+03
 2.94220E+03
 2.98040E+03
 3.03460E+03
 3.06060E+03
 3.09580E+03
 3.14190E+03
 3.15770E+03
 3.11580E+03
 3.09590E+03
 3.11030E+03
 3.04760E+03
 3.02170E+03
 3.00850E+03
 2.96960E+03
 2.95600E+03
 2.94320E+03
 2.93200E+03
 2.89570E+03
 2.89620E+03
 2.88100E+03
 2.85230E+03
 2.86300E+03
 2.84160E+03
 2.81210E+03
 2.81980E+03
 2.79380E+03
 2.80240E+03
 2.79340E+03
 2.79690E+03
 2.79350E+03
 2.79260E+03
 2.77720E+03
 2.78700E+03
 2.77890E+03
 2.79030E+03
 2.80960E+03
 2.82380E+03
 2.82990E+03
 2.80460E+03
 2.81110E+03
 2.79910E+03
 2.79690E+03
 2.75640E+03
 2.77020E+03
 2.74840E+03
 2.75010E+03
 2.75630E+03
 2.72440E+03
 2.72140E+03
 2.69520E+03
 2.71480E+03
 2.68560E+03
 2.68820E+03
 2.68730E+03
 2.68950E+03
 2.68070E+03
 2.67770E+03
 2.68530E+03
 2.67280E+03
 2.68400E+03
 2.66310E+03
 2.65590E+03
 2.64920E+03
 2.65310E+03
 2.67840E+03
 2.62880E+03
 2.65060E+03
 2.64690E+03
 2.62480E+03
 2.64910E+03
 2.64840E+03
 2.62290E+03
 2.66510E+03
 2.63000E+03
 2.62300E+03
 2.64990E+03
 2.64310E+03
 2.64150E+03
 2.63320E+03
 2.64900E+03
 2.62960E+03
 2.65050E+03
 2.62900E+03
 2.64080E+03
 2.61890E+03
 2.61110E+03
 2.62510E+03
 2.60050E+03
 2.61230E+03
 2.59210E+03
 2.59260E+03
 2.58340E+03
 2.58570E+03
 2.56750E+03
 2.57390E+03
 2.56180E+03
 2.58210E+03
 2.56730E+03
 2.56890E+03
 2.54000E+03
 2.56630E+03
 2.54250E+03
 2.53880E+03
 2.53670E+03
 2.54260E+03
 2.53050E+03
 2.53680E+03
 2.52390E+03
 2.52330E+03
 2.53190E+03
 2.50400E+03
 2.49400E+03
 2.46680E+03
 2.51690E+03
 2.47550E+03
 2.48200E+03
 2.47250E+03
 2.47420E+03
 2.47030E+03
 2.45490E+03
 2.47070E+03
 2.46420E+03
 2.46480E+03
 2.45540E+03
 2.45700E+03
 2.45250E+03
 2.44390E+03
 2.42860E+03
 2.44570E+03
 2.42260E+03
 2.45090E+03
 2.43290E+03
 2.42200E+03
 2.43140E+03
 2.40860E+03
 2.41420E+03
 2.41310E+03
 2.40420E+03
 2.41210E+03
 2.43080E+03
 2.41890E+03
 2.40590E+03
 2.40620E+03
 2.40500E+03
 2.38760E+03
 2.37920E+03
 2.40280E+03
 2.42000E+03
 2.41190E+03
 2.39310E+03
 2.37590E+03
 2.41010E+03
 2.40180E+03
 2.39170E+03
 2.40330E+03
 2.38310E+03
 2.38050E+03
 2.36840E+03
 2.36820E+03
 2.39240E+03
 2.37820E+03
 2.38690E+03
 2.34860E+03
 2.38840E+03
 2.37630E+03
 2.37860E+03
 2.35700E+03
 2.37460E+03
 2.36970E+03
 2.37010E+03
 2.36620E+03
 2.37790E+03
 2.36980E+03
 2.35860E+03
 2.35880E+03
 2.37530E+03
 2.37130E+03
 2.37690E+03
 2.35520E+03
 2.37050E+03
 2.36800E+03
 2.37560E+03
 2.37110E+03
 2.34770E+03
 2.36000E+03
 2.37390E+03
 2.36060E+03
 2.36070E+03
 2.36830E+03
 2.36520E+03
 2.36900E+03
 2.37200E+03
 2.37960E+03
 2.37090E+03
 2.37800E+03
 2.37050E+03
 2.35330E+03
 2.34660E+03
 2.34970E+03
 2.36740E+03
 2.36490E+03
 2.33890E+03
 2.35840E+03
 2.37400E+03
 2.35500E+03
 2.37460E+03
 2.35970E+03
 2.37550E+03
 2.37730E+03
 2.35330E+03
 2.36480E+03
 2.35930E+03
 2.34690E+03
 2.35730E+03
 2.35360E+03
 2.33420E+03
 2.37250E+03
 2.35200E+03
 2.34700E+03
 2.35790E+03
 2.34070E+03
 2.33890E+03
 2.35190E+03
 2.35440E+03
 2.34080E+03
 2.35080E+03
 2.34440E+03
 2.35200E+03
 2.34750E+03
 2.35280E+03
 2.36380E+03
 2.35980E+03
 2.34500E+03
 2.35520E+03
 2.36090E+03
 2.35580E+03
 2.35260E+03
 2.36460E+03
 2.35510E+03
 2.37050E+03
 2.37420E+03
 2.36140E+03
 2.36200E+03
 2.36390E+03
 2.37190E+03
 2.36100E+03
 2.36520E+03
 2.35870E+03
 2.35690E+03
 2.34300E+03
 2.36270E+03
 2.36630E+03
 2.34540E+03
 2.35840E+03
 2.35260E+03
 2.35620E+03
 2.36040E+03
 2.35740E+03
 2.34220E+03
 2.36460E+03
 2.33250E+03
 2.36760E+03
 2.36930E+03
 2.36320E+03
 2.34330E+03
 2.37540E+03
 2.36850E+03
 2.34060E+03
 2.36170E+03
 2.34030E+03
 2.36010E+03
 2.36710E+03
 2.34750E+03
 2.36630E+03
 2.36380E+03
 2.35560E+03
 2.34830E+03
 2.35980E+03
 2.34100E+03
 2.36550E+03
 2.39010E+03
 2.37110E+03
 2.37840E+03
 2.37440E+03
 2.36530E+03
 2.38340E+03
 2.36950E+03
 2.36800E+03
 2.36200E+03
 2.36450E+03
 2.35120E+03
 2.36510E+03
 2.38590E+03
 2.38650E+03
 2.35330E+03
 2.36050E+03
 2.36750E+03
 2.36920E+03
 2.38910E+03
 2.37680E+03
 2.35170E+03
 2.36540E+03
 2.38760E+03
 2.36440E+03
 2.36830E+03
 2.36060E+03
 2.34980E+03
 2.34660E+03
 2.34070E+03
 2.37370E+03
 2.33820E+03
 2.33530E+03
 2.34010E+03
 2.34580E+03
 2.34630E+03
 2.34050E+03
 2.31120E+03
 2.32240E+03
 2.32960E+03
 2.30040E+03
 2.33690E+03
 2.31880E+03
 2.31150E+03
 2.31740E+03
 2.31780E+03
 2.31240E+03
 2.31060E+03
 2.31330E+03
 2.31510E+03
 2.31050E+03
 2.30850E+03
 2.31600E+03
 2.30000E+03
 2.31750E+03
 2.31940E+03
 2.30110E+03
 2.32040E+03
 2.28950E+03
 2.28340E+03
 2.31150E+03
 2.30020E+03
 2.31130E+03
 2.30000E+03
 2.31040E+03
 2.28980E+03
 2.28690E+03
 2.29700E+03
 2.28540E+03
 2.29000E+03
 2.29180E+03
 2.29560E+03
 2.29860E+03
 2.29870E+03
 2.29540E+03
 2.30120E+03
 2.30490E+03
 2.27190E+03
 2.30440E+03
 2.30650E+03
 2.29220E+03
 2.30030E+03
 2.32880E+03
 2.29410E+03
 2.29110E+03
 2.30730E+03
 2.30050E+03
 2.28470E+03
 2.31110E+03
 2.31480E+03
 2.30210E+03
 2.30400E+03
 2.30240E+03
 2.29730E+03
 2.30400E+03
 2.28630E+03
 2.29040E+03
 2.30210E+03
 2.29390E+03
 2.30010E+03
 2.29460E+03
 2.26850E+03
 2.28220E+03
 2.28270E+03
 2.27820E+03
 2.29580E+03
 2.27880E+03
 2.27980E+03
 2.29050E+03
 2.28340E+03
 2.28770E+03
 2.29020E+03
 2.30360E+03
 2.28850E+03
 2.29210E+03
 2.28180E+03
 2.30050E+03
 2.28930E+03
 2.28640E+03
 2.28630E+03
 2.28550E+03
 2.28670E+03
 2.27030E+03
 2.28360E+03
 2.28770E+03
 2.28760E+03
 2.26360E+03
 2.27200E+03
 2.27920E+03
 2.26460E+03
 2.27080E+03
 2.27270E+03
 2.27730E+03
 2.28840E+03
 2.27210E+03
 2.29140E+03
 2.27680E+03
 2.27830E+03
 2.28640E+03
 2.27950E+03
 2.27520E+03
 2.29620E+03
 2.28320E+03
 2.27990E+03
 2.26970E+03
 2.27870E+03
 2.27480E+03
 2.27910E+03
 2.29330E+03
 2.28970E+03
 2.29460E+03
 2.29870E+03
 2.28740E+03
 2.29550E+03
 2.31460E+03
 2.31590E+03
 2.29990E+03
 2.32210E+03
 2.31600E+03
 2.33340E+03
 2.31940E+03
 2.32050E+03
 2.34900E+03
 2.33190E+03
 2.35260E+03
 2.33570E+03
 2.35750E+03
 2.35370E+03
 2.36130E+03
 2.38730E+03
 2.39330E+03
 2.42280E+03
 2.43800E+03
 2.48130E+03
 2.52100E+03
 2.55710E+03
 2.61150E+03
 2.66480E+03
 2.69810E+03
 2.71140E+03
 2.76550E+03
 2.80150E+03
 2.85250E+03
 2.88720E+03
 2.94110E+03
 3.01900E+03
 3.08210E+03
 3.10180E+03
 3.15020E+03
 3.20330E+03
 3.23430E+03
 3.31460E+03
 3.33020E+03
 3.35010E+03
 3.36070E+03
 3.32680E+03
 3.31090E+03
 3.30850E+03
 3.29730E+03
 3.28470E+03
 3.31370E+03
 3.29630E+03
 3.28390E+03
 3.26990E+03
 3.28810E+03
 3.26990E+03
 3.29070E+03
 3.28760E+03
 3.28140E+03
 3.24730E+03
 3.28660E+03
 3.25840E+03
 3.29050E+03
 3.25730E+03
 3.29840E+03
 3.29100E+03
 3.29210E+03
 3.29590E+03
 3.30940E+03
 3.27570E+03
 3.28700E+03
 3.27540E+03
 3.31140E+03
 3.30100E+03
 3.31120E+03
 3.29230E+03
 3.31950E+03
 3.31920E+03
 3.29670E+03
 3.32060E+03
 3.34440E+03
 3.31280E+03
 3.32210E+03
 3.32090E+03
 3.33630E+03
 3.34770E+03
 3.33210E+03
 3.34320E+03
 3.34480E+03
 3.35320E+03
 3.34560E+03
 3.36210E+03
 3.34380E+03
 3.34740E+03
 3.34460E+03
 3.35910E+03
 3.33140E+03
 3.35600E+03
 3.35430E+03
 3.31530E+03
 3.32850E+03
 3.31670E+03
 3.31870E+03
 3.30450E+03
 3.27570E+03
 3.27680E+03
 3.25260E+03
 3.22760E+03
 3.21330E+03
 3.16670E+03
 3.13720E+03
 3.08310E+03
 3.04270E+03
 2.99340E+03
 2.93980E+03
 2.89460E+03
 2.84340E+03
 2.77130E+03
 2.76240E+03
 2.72020E+03
 2.69180E+03
 2.62540E+03
 2.62760E+03
 2.58620E+03
 2.55210E+03
 2.53500E+03
 2.54710E+03
 2.49720E+03
 2.51530E+03
 2.50410E+03
 2.46200E+03
 2.44970E+03
 2.44390E+03
 2.44730E+03
 2.38460E+03
 2.41970E+03
 2.41460E+03
 2.38910E+03
 2.37930E+03
 2.38830E+03
 2.37010E+03
 2.36640E+03
 2.35780E+03
 2.35030E+03
 2.32650E+03
 2.31100E+03
 2.31160E+03
 2.31570E+03
 2.29850E+03
 2.31460E+03
 2.27730E+03
 2.26540E+03
 2.27820E+03
 2.25510E+03
 2.25250E+03
 2.23570E+03
 2.25310E+03
 2.23240E+03
 2.23020E+03
 2.21080E+03
 2.21590E+03
 2.20400E+03
 2.21030E+03
 2.19190E+03
 2.20420E+03
 2.17660E+03
 2.17630E+03
 2.15990E+03
 2.15860E+03
 2.14380E+03
 2.13480E+03
 2.14290E+03
 2.13010E+03
 2.12720E+03
 2.13150E+03
 2.12490E+03
 2.10650E+03
 2.11130E+03
 2.10510E+03
 2.10740E+03
 2.08890E+03
 2.08710E+03
 2.07940E+03
 2.07080E+03
 2.07960E+03
 2.08270E+03
 2.08140E+03
 2.06640E+03
 2.07850E+03
 2.07890E+03
 2.07240E+03
 2.06000E+03
 2.05890E+03
 2.04810E+03
 2.05970E+03
 2.05830E+03
 2.06200E+03
 2.03730E+03
 2.06060E+03
 2.04220E+03
 2.05320E+03
 2.04150E+03
 2.05460E+03
 2.04990E+03
 2.04040E+03
 2.03960E+03
 2.03610E+03
 2.05400E+03
 2.03590E+03
 2.05070E+03
 2.04560E+03
 2.04720E+03
 2.02550E+03
 2.03640E+03
 2.04030E+03
 2.03730E+03
 2.04650E+03
 2.04230E+03
 2.02850E+03
 2.02340E+03
 2.04650E+03
 2.02840E+03
 2.03430E+03
 2.03520E+03
 2.02820E+03
 2.01770E+03
 2.01040E+03
 2.02080E+03
 2.02910E+03
 2.01570E+03
 2.03040E+03
 2.04440E+03
 2.01030E+03
 2.03810E+03
 2.02100E+03
 2.03770E+03
 2.02970E+03
 2.01860E+03
 2.01910E+03
 2.02330E+03
 2.02910E+03
 2.01650E+03
 2.02130E+03
 2.01780E+03
 2.01250E+03
 2.00950E+03
 2.01940E+03
 2.01980E+03
 2.02370E+03
 2.02340E+03
 2.02160E+03
 2.01330E+03
 2.01400E+03
 2.01750E+03
 2.01370E+03
 2.03580E+03
 2.01140E+03
 2.02220E+03
 2.02020E+03
 2.01960E+03
 2.02140E+03
 2.02190E+03
 2.03240E+03
 2.02450E+03
 2.01750E+03
 2.03250E+03
 2.02100E+03
 2.01330E+03
 2.01440E+03
 2.00060E+03
 2.02370E+03
 2.02080E+03
 2.01180E+03
 2.01510E+03
 2.01360E+03
 2.00270E+03
 2.00470E+03
 2.01750E+03
 2.01610E+03
 2.00660E+03
 2.00610E+03
 2.00730E+03
 2.02190E+03
