 1.58150E+03
 1.57790E+03
 1.58180E+03
 1.57830E+03
 1.58140E+03
 1.58150E+03
 1.57930E+03
 1.58210E+03
 1.58300E+03
 1.58150E+03
 1.58130E+03
 1.57770E+03
 1.58010E+03
 1.58090E+03
 1.57960E+03
 1.58090E+03
 1.57940E+03
 1.57960E+03
 1.57640E+03
 1.57920E+03
 1.58110E+03
 1.58300E+03
 1.58110E+03
 1.57880E+03
 1.58100E+03
 1.58040E+03
 1.58100E+03
 1.58010E+03
 1.58070E+03
 1.57920E+03
 1.58170E+03
 1.57940E+03
 1.58010E+03
 1.58120E+03
 1.57930E+03
 1.58250E+03
 1.57950E+03
 1.58000E+03
 1.57870E+03
 1.58150E+03
 1.57780E+03
 1.57830E+03
 1.58020E+03
 1.58090E+03
 1.58000E+03
 1.58050E+03
 1.58000E+03
 1.58270E+03
 1.58160E+03
 1.58170E+03
 1.57930E+03
 1.58320E+03
 1.57880E+03
 1.57990E+03
 1.58110E+03
 1.58170E+03
 1.58010E+03
 1.57910E+03
 1.58020E+03
 1.58200E+03
 1.58230E+03
 1.58110E+03
 1.58020E+03
 1.58110E+03
 1.58140E+03
 1.57970E+03
 1.58010E+03
 1.58030E+03
 1.57870E+03
 1.58110E+03
 1.58320E+03
 1.58100E+03
 1.58010E+03
 1.57870E+03
 1.58010E+03
 1.57980E+03
 1.58670E+03
 1.60730E+03
 1.63690E+03
 1.62740E+03
 1.59420E+03
 1.58330E+03
 1.58230E+03
 1.58190E+03
 1.58030E+03
 1.58040E+03
 1.58010E+03
 1.58040E+03
 1.57930E+03
 1.58070E+03
 1.58140E+03
 1.58190E+03
 1.58050E+03
 1.58180E+03
 1.58080E+03
 1.57860E+03
 1.57990E+03
 1.58180E+03
 1.58050E+03
 1.58210E+03
 1.58110E+03
 1.58030E+03
 1.58110E+03
 1.58240E+03
 1.58000E+03
 1.58000E+03
 1.58170E+03
 1.58040E+03
 1.57910E+03
 1.58030E+03
 1.58040E+03
 1.58190E+03
 1.57940E+03
 1.58190E+03
 1.58210E+03
 1.58070E+03
 1.58030E+03
 1.58060E+03
 1.58210E+03
 1.57990E+03
 1.58110E+03
 1.58020E+03
 1.58200E+03
 1.57930E+03
 1.57900E+03
 1.58000E+03
 1.58180E+03
 1.58130E+03
 1.58140E+03
 1.58200E+03
 1.57940E+03
 1.58120E+03
 1.58040E+03
 1.58010E+03
 1.57910E+03
 1.57950E+03
 1.58200E+03
 1.58270E+03
 1.57940E+03
 1.58030E+03
 1.58220E+03
 1.58000E+03
 1.58150E+03
 1.57940E+03
 1.57840E+03
 1.58100E+03
 1.58210E+03
 1.58210E+03
 1.58160E+03
 1.58440E+03
 1.58240E+03
 1.58580E+03
 1.58920E+03
 1.59130E+03
 1.59600E+03
 1.60090E+03
 1.60880E+03
 1.61880E+03
 1.63080E+03
 1.63800E+03
 1.65860E+03
 1.68410E+03
 1.69730E+03
 1.71730E+03
 1.74810E+03
 1.77310E+03
 1.81210E+03
 1.84060E+03
 1.89720E+03
 1.94710E+03
 1.99710E+03
 2.04640E+03
 2.09570E+03
 2.17940E+03
 2.21780E+03
 2.27250E+03
 2.33340E+03
 2.39040E+03
 2.43940E+03
 2.47980E+03
 2.51070E+03
 2.52950E+03
 2.56030E+03
 2.55660E+03
 2.55200E+03
 2.59460E+03
 2.58220E+03
 2.58870E+03
 2.58330E+03
 2.59420E+03
 2.59470E+03
 2.57930E+03
 2.60430E+03
 2.62410E+03
 2.61540E+03
 2.62560E+03
 2.60510E+03
 2.60010E+03
 2.63210E+03
 2.62690E+03
 2.64860E+03
 2.65120E+03
 2.63530E+03
 2.64170E+03
 2.64980E+03
 2.63350E+03
 2.62190E+03
 2.64490E+03
 2.61820E+03
 2.64590E+03
 2.63440E+03
 2.61890E+03
 2.61560E+03
 2.62010E+03
 2.59940E+03
 2.59550E+03
 2.57570E+03
 2.60420E+03
 2.60810E+03
 2.57300E+03
 2.58640E+03
 2.56850E+03
 2.57050E+03
 2.58040E+03
 2.55660E+03
 2.58110E+03
 2.56810E+03
 2.58220E+03
 2.58270E+03
 2.57590E+03
 2.55890E+03
 2.56720E+03
 2.58090E+03
 2.59340E+03
 2.57210E+03
 2.58520E+03
 2.58600E+03
 2.58910E+03
 2.58480E+03
 2.61010E+03
 2.60460E+03
 2.56910E+03
 2.57460E+03
 2.60640E+03
 2.58850E+03
 2.59110E+03
 2.58780E+03
 2.58280E+03
 2.57130E+03
 2.60630E+03
 2.57820E+03
 2.55720E+03
 2.56830E+03
 2.57210E+03
 2.55550E+03
 2.57890E+03
 2.55410E+03
 2.55030E+03
 2.57230E+03
 2.56890E+03
 2.57590E+03
 2.54050E+03
 2.56830E+03
 2.57650E+03
 2.57210E+03
 2.57260E+03
 2.57150E+03
 2.57370E+03
 2.56290E+03
 2.55180E+03
 2.54090E+03
 2.51950E+03
 2.52970E+03
 2.54650E+03
 2.53870E+03
 2.52330E+03
 2.53730E+03
 2.51290E+03
 2.53000E+03
 2.51730E+03
 2.46900E+03
 2.49410E+03
 2.51740E+03
 2.50250E+03
 2.49500E+03
 2.49490E+03
 2.48620E+03
 2.48970E+03
 2.49030E+03
 2.49150E+03
 2.47880E+03
 2.50730E+03
 2.48570E+03
 2.48380E+03
 2.49570E+03
 2.48510E+03
 2.48470E+03
 2.47530E+03
 2.48120E+03
 2.46610E+03
 2.47180E+03
 2.50240E+03
 2.48860E+03
 2.48750E+03
 2.48400E+03
 2.48700E+03
 2.47440E+03
 2.48890E+03
 2.47480E+03
 2.45870E+03
 2.49480E+03
 2.49690E+03
 2.49200E+03
 2.47460E+03
 2.49160E+03
 2.50150E+03
 2.49350E+03
 2.49490E+03
 2.49550E+03
 2.50060E+03
 2.49340E+03
 2.47990E+03
 2.50220E+03
 2.49280E+03
 2.49750E+03
 2.49920E+03
 2.50650E+03
 2.50060E+03
 2.51890E+03
 2.51270E+03
 2.52130E+03
 2.52170E+03
 2.53970E+03
 2.52550E+03
 2.52120E+03
 2.52400E+03
 2.50420E+03
 2.51790E+03
 2.48930E+03
 2.48640E+03
 2.47240E+03
 2.46150E+03
 2.46040E+03
 2.46560E+03
 2.46680E+03
 2.47260E+03
 2.45780E+03
 2.46290E+03
 2.46370E+03
 2.47230E+03
 2.46650E+03
 2.44990E+03
 2.45020E+03
 2.46060E+03
 2.47490E+03
 2.48020E+03
 2.45180E+03
 2.47560E+03
 2.46660E+03
 2.48510E+03
 2.47730E+03
 2.48260E+03
 2.49570E+03
 2.52180E+03
 2.52280E+03
 2.53600E+03
 2.53930E+03
 2.54040E+03
 2.55020E+03
 2.55120E+03
 2.53870E+03
 2.52440E+03
 2.55050E+03
 2.51030E+03
 2.51830E+03
 2.50310E+03
 2.51760E+03
 2.50210E+03
 2.48090E+03
 2.51140E+03
 2.49810E+03
 2.49310E+03
 2.49430E+03
 2.50890E+03
 2.49060E+03
 2.49570E+03
 2.47700E+03
 2.46710E+03
 2.49460E+03
 2.48330E+03
 2.48340E+03
 2.50020E+03
 2.47470E+03
 2.49040E+03
 2.49710E+03
 2.48420E+03
 2.48010E+03
 2.49110E+03
 2.48680E+03
 2.48020E+03
 2.49280E+03
 2.48810E+03
 2.46930E+03
 2.47500E+03
 2.47400E+03
 2.51310E+03
 2.47700E+03
 2.47980E+03
 2.48390E+03
 2.47160E+03
 2.48120E+03
 2.46850E+03
 2.48800E+03
 2.48700E+03
 2.47680E+03
 2.49800E+03
 2.47600E+03
 2.49570E+03
 2.48530E+03
 2.49350E+03
 2.48270E+03
 2.48350E+03
 2.49540E+03
 2.47620E+03
 2.49400E+03
 2.50460E+03
 2.49500E+03
 2.47960E+03
 2.48570E+03
 2.50030E+03
 2.54070E+03
 2.49120E+03
 2.49410E+03
 2.50930E+03
 2.48740E+03
 2.51740E+03
 2.52550E+03
 2.50920E+03
 2.53960E+03
 2.51940E+03
 2.54060E+03
 2.54790E+03
 2.54950E+03
 2.53190E+03
 2.54090E+03
 2.54650E+03
 2.54100E+03
 2.52780E+03
 2.55220E+03
 2.53110E+03
 2.56140E+03
 2.55930E+03
 2.56750E+03
 2.57340E+03
 2.56110E+03
 2.59510E+03
 2.58350E+03
 2.60990E+03
 2.61270E+03
 2.59980E+03
 2.61940E+03
 2.65560E+03
 2.64570E+03
 2.68620E+03
 2.71330E+03
 2.72770E+03
 2.74320E+03
 2.72150E+03
 2.73370E+03
 2.72350E+03
 2.73060E+03
 2.67470E+03
 2.67140E+03
 2.64170E+03
 2.60430E+03
 2.59930E+03
 2.58520E+03
 2.58250E+03
 2.59320E+03
 2.57050E+03
 2.55220E+03
 2.54650E+03
 2.54720E+03
 2.53930E+03
 2.53780E+03
 2.50470E+03
 2.52820E+03
 2.51990E+03
 2.51880E+03
 2.49550E+03
 2.51570E+03
 2.49790E+03
 2.51230E+03
 2.49330E+03
 2.49210E+03
 2.46110E+03
 2.47490E+03
 2.48750E+03
 2.46040E+03
 2.44650E+03
 2.47470E+03
 2.44630E+03
 2.44130E+03
 2.46490E+03
 2.47250E+03
 2.43700E+03
 2.46120E+03
 2.43500E+03
 2.44250E+03
 2.45940E+03
 2.44690E+03
 2.43970E+03
 2.43510E+03
 2.44910E+03
 2.46670E+03
 2.44920E+03
 2.45280E+03
 2.42610E+03
 2.42620E+03
 2.41650E+03
 2.42380E+03
 2.42720E+03
 2.42060E+03
 2.43130E+03
 2.42230E+03
 2.42320E+03
 2.42310E+03
 2.42670E+03
 2.41800E+03
 2.40300E+03
 2.42530E+03
 2.42090E+03
 2.42470E+03
 2.42000E+03
 2.42370E+03
 2.41150E+03
 2.44070E+03
 2.40650E+03
 2.40380E+03
 2.40440E+03
 2.39150E+03
 2.38330E+03
 2.37920E+03
 2.39780E+03
 2.39850E+03
 2.37660E+03
 2.39440E+03
 2.37760E+03
 2.38880E+03
 2.38740E+03
 2.39960E+03
 2.39280E+03
 2.37410E+03
 2.39180E+03
 2.40620E+03
 2.39590E+03
 2.41510E+03
 2.43030E+03
 2.45800E+03
 2.47420E+03
 2.52390E+03
 2.52270E+03
 2.59070E+03
 2.67720E+03
 2.81130E+03
 2.97610E+03
 3.22370E+03
 3.58380E+03
 3.85590E+03
 3.90570E+03
 3.70420E+03
 3.41420E+03
 3.06330E+03
 2.86420E+03
 2.66360E+03
 2.54610E+03
 2.47910E+03
 2.43450E+03
 2.39600E+03
 2.38420E+03
 2.37510E+03
 2.36350E+03
 2.37700E+03
 2.33860E+03
 2.34710E+03
 2.37920E+03
 2.35720E+03
 2.41230E+03
 2.38310E+03
 2.41130E+03
 2.43680E+03
 2.46330E+03
 2.51740E+03
 2.57500E+03
 2.62780E+03
 2.76350E+03
 2.89810E+03
 3.06200E+03
 3.30870E+03
 3.53990E+03
 3.86900E+03
 4.14890E+03
 4.43110E+03
 4.51830E+03
 4.27940E+03
 3.94870E+03
 3.49850E+03
 3.12820E+03
 2.88870E+03
 2.68530E+03
 2.59940E+03
 2.52760E+03
 2.47770E+03
 2.42160E+03
 2.40790E+03
 2.38560E+03
 2.37570E+03
 2.34130E+03
 2.34620E+03
 2.33340E+03
 2.32740E+03
 2.32590E+03
 2.31040E+03
 2.31330E+03
 2.31590E+03
 2.28790E+03
 2.29960E+03
 2.30350E+03
 2.28060E+03
 2.26690E+03
 2.27850E+03
 2.26020E+03
 2.28090E+03
 2.27250E+03
 2.27090E+03
 2.25330E+03
 2.28750E+03
 2.23880E+03
 2.27670E+03
 2.27080E+03
 2.29070E+03
 2.28570E+03
 2.29190E+03
 2.27950E+03
 2.26980E+03
 2.26870E+03
 2.27270E+03
 2.26980E+03
 2.25320E+03
 2.26260E+03
 2.25090E+03
 2.24640E+03
 2.24950E+03
 2.26840E+03
 2.24760E+03
 2.24210E+03
 2.25790E+03
 2.26190E+03
 2.25180E+03
 2.25860E+03
 2.24520E+03
 2.26930E+03
 2.25980E+03
 2.25290E+03
 2.24580E+03
 2.24490E+03
 2.22940E+03
 2.21370E+03
 2.18740E+03
 2.18920E+03
 2.18460E+03
 2.17970E+03
 2.16710E+03
 2.18800E+03
 2.17070E+03
 2.16540E+03
 2.15290E+03
 2.15660E+03
 2.14780E+03
 2.13610E+03
 2.15430E+03
 2.12400E+03
 2.12420E+03
 2.13100E+03
 2.09100E+03
 2.10310E+03
 2.07720E+03
 2.05970E+03
 2.06870E+03
 2.05180E+03
 2.01890E+03
 2.03290E+03
 2.02850E+03
 2.02280E+03
 2.01370E+03
 2.01640E+03
 2.01720E+03
 2.02540E+03
 2.01580E+03
 2.01870E+03
 2.00230E+03
 2.00780E+03
 2.01050E+03
 2.01830E+03
 2.01570E+03
 2.03200E+03
 2.03050E+03
 2.02450E+03
 2.04790E+03
 2.04260E+03
 2.03800E+03
 2.05170E+03
 2.05710E+03
 2.05860E+03
 2.06180E+03
 2.06860E+03
 2.06270E+03
 2.08850E+03
 2.08590E+03
 2.10560E+03
 2.11630E+03
 2.10240E+03
 2.12100E+03
 2.12610E+03
 2.12710E+03
 2.14130E+03
 2.16390E+03
 2.18710E+03
 2.19910E+03
 2.22320E+03
 2.22260E+03
 2.27540E+03
 2.29530E+03
 2.34610E+03
 2.36530E+03
 2.43080E+03
 2.47660E+03
 2.53900E+03
 2.62430E+03
 2.72110E+03
 2.79310E+03
 2.92930E+03
 3.07100E+03
 3.24130E+03
 3.44330E+03
 3.68420E+03
 3.96230E+03
 4.30580E+03
 4.69540E+03
 5.17200E+03
 5.77450E+03
 6.43980E+03
 7.26310E+03
 8.07540E+03
 9.13180E+03
 1.00918E+04
 1.10228E+04
 1.17395E+04
 1.21186E+04
 1.22945E+04
 1.20398E+04
 1.16790E+04
 1.10967E+04
 1.03335E+04
 9.58830E+03
 8.93900E+03
 8.35700E+03
 7.70330E+03
 7.20360E+03
 6.76520E+03
 6.38330E+03
 5.98720E+03
 5.66610E+03
 5.40380E+03
 5.18990E+03
 4.95370E+03
 4.79120E+03
 4.61020E+03
 4.45980E+03
 4.29930E+03
 4.18800E+03
 4.07100E+03
 4.00730E+03
 3.90910E+03
 3.77140E+03
 3.71210E+03
 3.64960E+03
 3.55920E+03
 3.52610E+03
 3.45280E+03
 3.36330E+03
 3.38950E+03
 3.31090E+03
 3.29090E+03
 3.25270E+03
 3.19400E+03
 3.16400E+03
 3.13890E+03
 3.09490E+03
 3.05100E+03
 3.06280E+03
 3.02300E+03
 2.99740E+03
 2.96130E+03
 2.92010E+03
 2.92360E+03
 2.89450E+03
 2.89740E+03
 2.83930E+03
 2.84190E+03
 2.83530E+03
 2.79570E+03
 2.79520E+03
 2.78890E+03
 2.78690E+03
 2.74150E+03
 2.74980E+03
 2.73950E+03
 2.71890E+03
 2.72280E+03
 2.71570E+03
 2.68970E+03
 2.66530E+03
 2.67020E+03
 2.67480E+03
 2.65430E+03
 2.65030E+03
 2.62560E+03
 2.60350E+03
 2.59260E+03
 2.59410E+03
 2.58410E+03
 2.57670E+03
 2.55100E+03
 2.55920E+03
 2.54020E+03
 2.56170E+03
 2.52790E+03
 2.52860E+03
 2.51350E+03
 2.51280E+03
 2.51880E+03
 2.48970E+03
 2.48760E+03
 2.49460E+03
 2.50100E+03
 2.48440E+03
 2.49400E+03
 2.47040E+03
 2.47910E+03
 2.47880E+03
 2.45910E+03
 2.45280E+03
 2.44930E+03
 2.45230E+03
 2.43660E+03
 2.44970E+03
 2.44460E+03
 2.44670E+03
 2.45860E+03
 2.44050E+03
 2.42020E+03
 2.43520E+03
 2.41010E+03
 2.38890E+03
 2.39830E+03
 2.40330E+03
 2.37370E+03
 2.37880E+03
 2.38810E+03
 2.37880E+03
 2.37190E+03
 2.31900E+03
 2.36320E+03
 2.35470E+03
 2.36880E+03
 2.35620E+03
 2.34700E+03
 2.37090E+03
 2.33640E+03
 2.35540E+03
 2.36380E+03
 2.36600E+03
 2.36180E+03
 2.38930E+03
 2.39040E+03
 2.37320E+03
 2.41500E+03
 2.43570E+03
 2.43950E+03
 2.48010E+03
 2.49060E+03
 2.52000E+03
 2.53510E+03
 2.51970E+03
 2.52640E+03
 2.51520E+03
 2.50110E+03
 2.48980E+03
 2.48430E+03
 2.47280E+03
 2.45080E+03
 2.47010E+03
 2.43360E+03
 2.40460E+03
 2.40920E+03
 2.42000E+03
 2.39180E+03
 2.38340E+03
 2.38120E+03
 2.37070E+03
 2.37890E+03
 2.36370E+03
 2.33760E+03
 2.35640E+03
 2.34370E+03
 2.33440E+03
 2.34450E+03
 2.32730E+03
 2.34610E+03
 2.33330E+03
 2.34040E+03
 2.34820E+03
 2.34930E+03
 2.34630E+03
 2.35030E+03
 2.32740E+03
 2.35030E+03
 2.31280E+03
 2.33370E+03
 2.31830E+03
 2.30940E+03
 2.29700E+03
 2.28730E+03
 2.29260E+03
 2.30170E+03
 2.27380E+03
 2.29750E+03
 2.28380E+03
 2.27300E+03
 2.26630E+03
 2.27490E+03
 2.27380E+03
 2.27460E+03
 2.28360E+03
 2.26220E+03
 2.26140E+03
 2.25580E+03
 2.26150E+03
 2.26070E+03
 2.26880E+03
 2.25220E+03
 2.27200E+03
 2.25940E+03
 2.25370E+03
 2.25300E+03
 2.26390E+03
 2.26160E+03
 2.25130E+03
 2.25010E+03
 2.26830E+03
 2.24950E+03
 2.26590E+03
 2.24930E+03
 2.25980E+03
 2.26290E+03
 2.27440E+03
 2.26200E+03
 2.26150E+03
 2.25460E+03
 2.27380E+03
 2.25470E+03
 2.25930E+03
 2.26590E+03
 2.25770E+03
 2.24440E+03
 2.23670E+03
 2.24130E+03
 2.22780E+03
 2.24800E+03
 2.24890E+03
 2.23030E+03
 2.23400E+03
 2.22210E+03
 2.22800E+03
 2.21800E+03
 2.21600E+03
 2.21380E+03
 2.22170E+03
 2.21540E+03
 2.21520E+03
 2.19960E+03
 2.21820E+03
 2.20750E+03
 2.20360E+03
 2.20520E+03
 2.19770E+03
 2.19330E+03
 2.19230E+03
 2.19820E+03
 2.19390E+03
 2.20560E+03
 2.17680E+03
 2.20270E+03
 2.20150E+03
 2.19420E+03
 2.18840E+03
 2.20340E+03
 2.19210E+03
 2.19040E+03
 2.19130E+03
 2.17720E+03
 2.17580E+03
 2.18850E+03
 2.16630E+03
 2.16820E+03
 2.18740E+03
 2.17210E+03
 2.17390E+03
 2.16820E+03
 2.17420E+03
 2.16680E+03
 2.15710E+03
 2.15920E+03
 2.17310E+03
 2.16060E+03
 2.17440E+03
 2.16330E+03
 2.16620E+03
 2.16230E+03
 2.14500E+03
 2.16220E+03
 2.16760E+03
 2.15160E+03
 2.14830E+03
 2.15250E+03
 2.17680E+03
 2.17230E+03
 2.16920E+03
 2.16220E+03
 2.16550E+03
 2.17650E+03
 2.16660E+03
 2.16170E+03
 2.15640E+03
 2.16840E+03
 2.16810E+03
 2.15340E+03
 2.18170E+03
 2.14640E+03
 2.16940E+03
 2.16990E+03
 2.17320E+03
 2.17610E+03
 2.15660E+03
 2.19170E+03
 2.16220E+03
 2.17450E+03
 2.17090E+03
 2.16540E+03
 2.16510E+03
 2.17230E+03
 2.17910E+03
 2.17860E+03
 2.17910E+03
 2.16700E+03
 2.16300E+03
 2.18300E+03
 2.19150E+03
 2.17420E+03
 2.17910E+03
 2.16960E+03
 2.17210E+03
 2.17450E+03
 2.18120E+03
 2.14550E+03
 2.16950E+03
 2.17970E+03
 2.16310E+03
 2.16590E+03
 2.16450E+03
 2.15560E+03
 2.16220E+03
 2.13890E+03
 2.15700E+03
 2.15780E+03
 2.15180E+03
 2.14410E+03
 2.14990E+03
 2.14720E+03
 2.14910E+03
 2.13630E+03
 2.14650E+03
 2.13220E+03
 2.15380E+03
 2.14450E+03
 2.14310E+03
 2.13100E+03
 2.12610E+03
 2.12930E+03
 2.13260E+03
 2.13860E+03
 2.12480E+03
 2.13230E+03
 2.13070E+03
 2.14440E+03
 2.11470E+03
 2.14530E+03
 2.14090E+03
 2.13870E+03
 2.14590E+03
 2.12430E+03
 2.13150E+03
 2.15880E+03
 2.13970E+03
 2.15640E+03
 2.14220E+03
 2.13560E+03
 2.14340E+03
 2.15880E+03
 2.15010E+03
 2.13210E+03
 2.14630E+03
 2.14890E+03
 2.13580E+03
 2.13730E+03
 2.13680E+03
 2.11880E+03
 2.14250E+03
 2.13770E+03
 2.11950E+03
 2.12070E+03
 2.12430E+03
 2.13330E+03
 2.12450E+03
 2.11350E+03
 2.11530E+03
 2.13930E+03
 2.11980E+03
 2.11500E+03
 2.11730E+03
 2.12340E+03
 2.12090E+03
 2.11240E+03
 2.12700E+03
 2.12560E+03
 2.13040E+03
 2.13180E+03
 2.12560E+03
 2.12100E+03
 2.12190E+03
 2.12730E+03
 2.12290E+03
 2.13180E+03
 2.13710E+03
 2.13270E+03
 2.13830E+03
 2.12100E+03
 2.14040E+03
 2.11870E+03
 2.13930E+03
 2.12120E+03
 2.14090E+03
 2.13010E+03
 2.14290E+03
 2.11820E+03
 2.13280E+03
 2.15260E+03
 2.14810E+03
 2.14400E+03
 2.15650E+03
 2.13900E+03
 2.15000E+03
 2.14260E+03
 2.14780E+03
 2.15550E+03
 2.14150E+03
 2.15050E+03
 2.13910E+03
 2.14210E+03
 2.12800E+03
 2.13960E+03
 2.13040E+03
 2.12020E+03
 2.11240E+03
 2.14130E+03
 2.13740E+03
 2.13720E+03
 2.12500E+03
 2.12860E+03
 2.11830E+03
 2.12590E+03
 2.09910E+03
 2.12130E+03
 2.11880E+03
 2.11300E+03
 2.11030E+03
 2.11550E+03
 2.11930E+03
 2.12740E+03
 2.09510E+03
 2.10000E+03
 2.11990E+03
 2.10780E+03
 2.09020E+03
 2.10350E+03
 2.10600E+03
 2.10640E+03
 2.09190E+03
 2.10230E+03
 2.09200E+03
 2.09580E+03
 2.10480E+03
 2.08920E+03
 2.09100E+03
 2.06940E+03
 2.09610E+03
 2.08570E+03
 2.09150E+03
 2.08410E+03
 2.09760E+03
 2.08400E+03
 2.10030E+03
 2.09010E+03
 2.09030E+03
 2.09510E+03
 2.10120E+03
 2.08700E+03
 2.09300E+03
 2.07990E+03
 2.08760E+03
 2.09350E+03
 2.08810E+03
 2.07980E+03
 2.07940E+03
 2.08760E+03
 2.08960E+03
 2.07940E+03
 2.08910E+03
 2.08150E+03
 2.08260E+03
 2.10010E+03
 2.08250E+03
 2.09170E+03
 2.07660E+03
 2.08910E+03
 2.07830E+03
 2.08740E+03
 2.09000E+03
 2.07840E+03
 2.08790E+03
 2.09330E+03
 2.10120E+03
 2.08730E+03
 2.09150E+03
 2.07530E+03
 2.08610E+03
 2.07290E+03
 2.08030E+03
 2.08790E+03
 2.08130E+03
 2.07740E+03
 2.08380E+03
 2.09650E+03
 2.09260E+03
 2.08840E+03
 2.07210E+03
 2.06440E+03
 2.06700E+03
 2.08480E+03
 2.07490E+03
 2.08130E+03
 2.07540E+03
 2.08240E+03
 2.08490E+03
 2.09130E+03
 2.08500E+03
 2.08210E+03
 2.07280E+03
 2.08050E+03
 2.07230E+03
 2.05720E+03
 2.08380E+03
 2.08020E+03
 2.07930E+03
 2.08080E+03
 2.07660E+03
 2.07370E+03
 2.07860E+03
 2.07330E+03
 2.08410E+03
 2.07610E+03
 2.08180E+03
 2.07620E+03
 2.07530E+03
 2.07270E+03
 2.07600E+03
 2.06580E+03
 2.07930E+03
 2.07500E+03
 2.08670E+03
 2.07220E+03
 2.07660E+03
 2.08600E+03
 2.08060E+03
 2.05310E+03
 2.06930E+03
 2.07700E+03
 2.07240E+03
 2.09070E+03
 2.08380E+03
 2.07810E+03
 2.07920E+03
 2.06920E+03
 2.06430E+03
 2.07060E+03
 2.08410E+03
 2.08570E+03
 2.08310E+03
 2.08290E+03
 2.09070E+03
 2.08050E+03
 2.08240E+03
 2.09740E+03
 2.09320E+03
 2.09190E+03
 2.08650E+03
 2.09100E+03
 2.11050E+03
 2.09930E+03
 2.10360E+03
 2.10920E+03
 2.11030E+03
 2.12380E+03
 2.13450E+03
 2.13790E+03
 2.13650E+03
 2.15100E+03
 2.18410E+03
 2.17090E+03
 2.20120E+03
 2.21960E+03
 2.24180E+03
 2.26950E+03
 2.28440E+03
 2.31310E+03
 2.32640E+03
 2.34810E+03
 2.39040E+03
 2.40950E+03
 2.44740E+03
 2.46730E+03
 2.49520E+03
 2.51370E+03
 2.54030E+03
 2.59130E+03
 2.60140E+03
 2.61790E+03
 2.64520E+03
 2.66040E+03
 2.66720E+03
 2.66530E+03
 2.69330E+03
 2.67230E+03
 2.66070E+03
 2.66120E+03
 2.63120E+03
 2.66360E+03
 2.63770E+03
 2.61160E+03
 2.64760E+03
 2.64330E+03
 2.65740E+03
 2.63200E+03
 2.66390E+03
 2.64600E+03
 2.66990E+03
 2.65540E+03
 2.64170E+03
 2.65240E+03
 2.61790E+03
 2.65260E+03
 2.66180E+03
 2.65770E+03
 2.62680E+03
 2.64460E+03
 2.64640E+03
 2.66790E+03
 2.65030E+03
 2.65580E+03
 2.65830E+03
 2.67580E+03
 2.67060E+03
 2.67190E+03
 2.66940E+03
 2.66620E+03
 2.67720E+03
 2.67820E+03
 2.68150E+03
 2.70250E+03
 2.65760E+03
 2.68730E+03
 2.65650E+03
 2.69530E+03
 2.66980E+03
 2.67510E+03
 2.68950E+03
 2.69350E+03
 2.69620E+03
 2.69380E+03
 2.69100E+03
 2.69090E+03
 2.67610E+03
 2.67080E+03
 2.67250E+03
 2.67120E+03
 2.65070E+03
 2.67230E+03
 2.67010E+03
 2.67340E+03
 2.64160E+03
 2.66930E+03
 2.66650E+03
 2.62610E+03
 2.61730E+03
 2.61520E+03
 2.58570E+03
 2.56580E+03
 2.53490E+03
 2.50610E+03
 2.47650E+03
 2.45360E+03
 2.43110E+03
 2.41680E+03
 2.37640E+03
 2.36970E+03
 2.32870E+03
 2.31590E+03
 2.28930E+03
 2.27830E+03
 2.28210E+03
 2.23510E+03
 2.24140E+03
 2.23790E+03
 2.22510E+03
 2.21080E+03
 2.21020E+03
 2.19760E+03
 2.18300E+03
 2.18900E+03
 2.17490E+03
 2.17190E+03
 2.15290E+03
 2.14750E+03
 2.16140E+03
 2.15110E+03
 2.13680E+03
 2.13530E+03
 2.12130E+03
 2.11980E+03
 2.12810E+03
 2.11480E+03
 2.10960E+03
 2.11990E+03
 2.10360E+03
 2.11240E+03
 2.11080E+03
 2.10490E+03
 2.08780E+03
 2.08260E+03
 2.08160E+03
 2.07900E+03
 2.07020E+03
 2.06420E+03
 2.05930E+03
 2.05060E+03
 2.04580E+03
 2.05410E+03
 2.03170E+03
 2.04200E+03
 2.04010E+03
 2.04220E+03
 2.01540E+03
 2.03030E+03
 2.02490E+03
 2.02450E+03
 2.01440E+03
 2.01010E+03
 2.00650E+03
 1.99770E+03
 2.00000E+03
 2.00460E+03
 2.00240E+03
 1.98100E+03
 2.00600E+03
 2.00290E+03
 1.98190E+03
 1.99160E+03
 1.99590E+03
 1.99240E+03
 1.98110E+03
 1.96530E+03
 1.98680E+03
 1.97190E+03
 1.95800E+03
 1.96930E+03
 1.97040E+03
 1.96890E+03
 1.97690E+03
 1.96740E+03
 1.96450E+03
 1.96690E+03
 1.97360E+03
 1.96890E+03
 1.97180E+03
 1.96560E+03
 1.96370E+03
 1.95220E+03
 1.95750E+03
 1.96650E+03
 1.96820E+03
 1.96690E+03
 1.97230E+03
 1.95430E+03
 1.95450E+03
 1.95570E+03
 1.95530E+03
 1.95050E+03
 1.95670E+03
 1.95990E+03
 1.96200E+03
 1.94500E+03
 1.96280E+03
 1.96240E+03
 1.96470E+03
 1.95640E+03
 1.95590E+03
 1.96530E+03
 1.97020E+03
 1.95670E+03
 1.95890E+03
 1.94650E+03
 1.94010E+03
 1.96550E+03
 1.94610E+03
 1.95140E+03
 1.96660E+03
 1.95970E+03
 1.95400E+03
 1.95670E+03
 1.97500E+03
 1.96050E+03
 1.94290E+03
 1.94310E+03
 1.95260E+03
 1.95890E+03
 1.95680E+03
 1.96010E+03
 1.95500E+03
 1.95320E+03
 1.95680E+03
 1.94950E+03
 1.96370E+03
 1.94730E+03
 1.97270E+03
 1.95830E+03
 1.94940E+03
 1.94030E+03
 1.94870E+03
 1.95520E+03
 1.96460E+03
 1.94690E+03
 1.95540E+03
 1.96460E+03
 1.94230E+03
 1.94680E+03
 1.94380E+03
 1.95200E+03
 1.95340E+03
 1.95860E+03
 1.96180E+03
 1.96310E+03
 1.94760E+03
 1.96680E+03
 1.94490E+03
 1.95140E+03
 1.97720E+03
 1.97000E+03
 1.94660E+03
 1.94840E+03
 1.94940E+03
 1.95450E+03
 1.94750E+03
 1.94870E+03
 1.94800E+03
 1.95830E+03
 1.95610E+03
 1.95370E+03
 1.96190E+03
 1.94760E+03
