 1.57910E+03
 1.58020E+03
 1.58060E+03
 1.58110E+03
 1.58100E+03
 1.58000E+03
 1.57850E+03
 1.58100E+03
 1.57880E+03
 1.57930E+03
 1.58030E+03
 1.57990E+03
 1.58190E+03
 1.58310E+03
 1.58120E+03
 1.58000E+03
 1.58030E+03
 1.57940E+03
 1.58130E+03
 1.58000E+03
 1.58110E+03
 1.58030E+03
 1.58190E+03
 1.58160E+03
 1.58070E+03
 1.57960E+03
 1.57900E+03
 1.57930E+03
 1.58140E+03
 1.58040E+03
 1.57880E+03
 1.58070E+03
 1.58070E+03
 1.58110E+03
 1.57910E+03
 1.57970E+03
 1.57990E+03
 1.58100E+03
 1.57830E+03
 1.57960E+03
 1.58160E+03
 1.58110E+03
 1.57970E+03
 1.58000E+03
 1.58090E+03
 1.58090E+03
 1.58170E+03
 1.58030E+03
 1.58120E+03
 1.57940E+03
 1.58010E+03
 1.58130E+03
 1.58170E+03
 1.58010E+03
 1.58140E+03
 1.58130E+03
 1.58080E+03
 1.58120E+03
 1.57870E+03
 1.57990E+03
 1.58110E+03
 1.57960E+03
 1.57920E+03
 1.57960E+03
 1.57990E+03
 1.57850E+03
 1.57940E+03
 1.57920E+03
 1.58060E+03
 1.58170E+03
 1.58080E+03
 1.58330E+03
 1.57920E+03
 1.57980E+03
 1.58090E+03
 1.58430E+03
 1.60190E+03
 1.67120E+03
 1.76970E+03
 1.72870E+03
 1.63620E+03
 1.59130E+03
 1.58170E+03
 1.58150E+03
 1.58060E+03
 1.57900E+03
 1.58140E+03
 1.58140E+03
 1.58090E+03
 1.58220E+03
 1.58050E+03
 1.58530E+03
 1.57950E+03
 1.58130E+03
 1.58110E+03
 1.58190E+03
 1.57990E+03
 1.58210E+03
 1.58220E+03
 1.58230E+03
 1.58320E+03
 1.58190E+03
 1.58390E+03
 1.58170E+03
 1.58100E+03
 1.57960E+03
 1.58180E+03
 1.58140E+03
 1.58150E+03
 1.57950E+03
 1.58100E+03
 1.58060E+03
 1.58140E+03
 1.58220E+03
 1.58070E+03
 1.58190E+03
 1.58010E+03
 1.58120E+03
 1.58350E+03
 1.58010E+03
 1.58350E+03
 1.58130E+03
 1.57920E+03
 1.58100E+03
 1.58150E+03
 1.58100E+03
 1.57990E+03
 1.57940E+03
 1.58020E+03
 1.58040E+03
 1.58220E+03
 1.57960E+03
 1.57790E+03
 1.57770E+03
 1.57820E+03
 1.57950E+03
 1.57880E+03
 1.58270E+03
 1.58120E+03
 1.58090E+03
 1.58090E+03
 1.58040E+03
 1.57990E+03
 1.58320E+03
 1.58110E+03
 1.58250E+03
 1.58150E+03
 1.57960E+03
 1.58360E+03
 1.58460E+03
 1.58850E+03
 1.58680E+03
 1.59600E+03
 1.59880E+03
 1.60140E+03
 1.61090E+03
 1.62000E+03
 1.63880E+03
 1.65350E+03
 1.67650E+03
 1.69880E+03
 1.72720E+03
 1.75690E+03
 1.79810E+03
 1.83020E+03
 1.87130E+03
 1.92070E+03
 1.97850E+03
 2.03640E+03
 2.10620E+03
 2.18090E+03
 2.27460E+03
 2.37160E+03
 2.46810E+03
 2.54060E+03
 2.64090E+03
 2.72790E+03
 2.81910E+03
 2.86760E+03
 2.96210E+03
 2.98360E+03
 3.02700E+03
 3.07440E+03
 3.09030E+03
 3.07770E+03
 3.09170E+03
 3.10790E+03
 3.12130E+03
 3.12270E+03
 3.14720E+03
 3.12950E+03
 3.12950E+03
 3.10780E+03
 3.14400E+03
 3.14010E+03
 3.14510E+03
 3.14920E+03
 3.15840E+03
 3.16340E+03
 3.18340E+03
 3.19460E+03
 3.16300E+03
 3.20330E+03
 3.20500E+03
 3.19280E+03
 3.18920E+03
 3.16960E+03
 3.18000E+03
 3.17610E+03
 3.18490E+03
 3.15450E+03
 3.16130E+03
 3.13250E+03
 3.11880E+03
 3.10580E+03
 3.12640E+03
 3.11850E+03
 3.08710E+03
 3.08340E+03
 3.07070E+03
 3.09900E+03
 3.09170E+03
 3.08790E+03
 3.05680E+03
 3.07330E+03
 3.07480E+03
 3.06390E+03
 3.08200E+03
 3.04980E+03
 3.04750E+03
 3.05320E+03
 3.05330E+03
 3.06540E+03
 3.08080E+03
 3.07080E+03
 3.06400E+03
 3.05540E+03
 3.07310E+03
 3.05290E+03
 3.04980E+03
 3.04360E+03
 3.02380E+03
 3.04850E+03
 3.02530E+03
 3.02770E+03
 3.03240E+03
 3.01690E+03
 3.01060E+03
 3.01370E+03
 3.01460E+03
 3.01520E+03
 2.99420E+03
 3.00800E+03
 3.03970E+03
 3.00920E+03
 2.99630E+03
 3.00010E+03
 2.99740E+03
 3.00980E+03
 2.97700E+03
 2.99440E+03
 2.96940E+03
 3.00770E+03
 2.98400E+03
 2.98970E+03
 2.97760E+03
 2.98980E+03
 2.95660E+03
 2.96940E+03
 2.98400E+03
 2.96350E+03
 2.96260E+03
 2.96050E+03
 2.98970E+03
 2.94780E+03
 2.95770E+03
 2.93560E+03
 2.91450E+03
 2.94150E+03
 2.93510E+03
 2.96540E+03
 2.91570E+03
 2.90930E+03
 2.91830E+03
 2.89370E+03
 2.90570E+03
 2.92260E+03
 2.91190E+03
 2.89700E+03
 2.89230E+03
 2.90120E+03
 2.90670E+03
 2.87640E+03
 2.89300E+03
 2.85890E+03
 2.86620E+03
 2.87920E+03
 2.88640E+03
 2.88040E+03
 2.88130E+03
 2.87380E+03
 2.89150E+03
 2.86420E+03
 2.87690E+03
 2.85470E+03
 2.86040E+03
 2.86720E+03
 2.85370E+03
 2.87320E+03
 2.86450E+03
 2.85120E+03
 2.84510E+03
 2.86900E+03
 2.87720E+03
 2.86490E+03
 2.83350E+03
 2.84760E+03
 2.83420E+03
 2.84420E+03
 2.83750E+03
 2.84020E+03
 2.84770E+03
 2.84990E+03
 2.84410E+03
 2.82590E+03
 2.83730E+03
 2.83600E+03
 2.82600E+03
 2.83300E+03
 2.83330E+03
 2.81140E+03
 2.81720E+03
 2.82650E+03
 2.83170E+03
 2.84820E+03
 2.82700E+03
 2.80300E+03
 2.81010E+03
 2.84190E+03
 2.81870E+03
 2.83200E+03
 2.82120E+03
 2.82910E+03
 2.83770E+03
 2.83300E+03
 2.81960E+03
 2.85130E+03
 2.83180E+03
 2.85060E+03
 2.84820E+03
 2.83040E+03
 2.86520E+03
 2.83940E+03
 2.86520E+03
 2.84870E+03
 2.86890E+03
 2.86350E+03
 2.83940E+03
 2.85510E+03
 2.89250E+03
 2.90950E+03
 2.89220E+03
 2.89870E+03
 2.90300E+03
 2.93640E+03
 2.97250E+03
 2.95420E+03
 3.00870E+03
 3.02610E+03
 2.99550E+03
 3.00870E+03
 2.98890E+03
 3.00050E+03
 2.99800E+03
 2.97450E+03
 2.96740E+03
 2.96040E+03
 2.95400E+03
 2.94260E+03
 2.93800E+03
 2.91440E+03
 2.91480E+03
 2.90050E+03
 2.94120E+03
 2.89680E+03
 2.89150E+03
 2.88330E+03
 2.90000E+03
 2.88050E+03
 2.89700E+03
 2.86640E+03
 2.89330E+03
 2.89090E+03
 2.87270E+03
 2.87470E+03
 2.90780E+03
 2.89850E+03
 2.89820E+03
 2.89530E+03
 2.89690E+03
 2.87990E+03
 2.90350E+03
 2.87460E+03
 2.88280E+03
 2.88960E+03
 2.87230E+03
 2.85840E+03
 2.88990E+03
 2.89080E+03
 2.88010E+03
 2.88120E+03
 2.87740E+03
 2.86690E+03
 2.88060E+03
 2.87530E+03
 2.86710E+03
 2.87450E+03
 2.88170E+03
 2.87930E+03
 2.86430E+03
 2.83310E+03
 2.84790E+03
 2.86120E+03
 2.86900E+03
 2.86470E+03
 2.86800E+03
 2.87760E+03
 2.88780E+03
 2.88310E+03
 2.92490E+03
 2.89720E+03
 2.90680E+03
 2.89880E+03
 2.89150E+03
 2.89900E+03
 2.90290E+03
 2.90590E+03
 2.93430E+03
 2.93040E+03
 2.92260E+03
 2.94520E+03
 2.89360E+03
 2.93480E+03
 2.93910E+03
 2.93610E+03
 2.93800E+03
 2.94920E+03
 2.96830E+03
 2.96450E+03
 2.95870E+03
 2.98490E+03
 2.99980E+03
 3.00940E+03
 3.00500E+03
 3.01140E+03
 3.01960E+03
 3.04930E+03
 3.05030E+03
 3.04780E+03
 3.06760E+03
 3.07950E+03
 3.10700E+03
 3.12250E+03
 3.17700E+03
 3.22050E+03
 3.22750E+03
 3.26490E+03
 3.27450E+03
 3.25700E+03
 3.23330E+03
 3.19820E+03
 3.19200E+03
 3.13800E+03
 3.11360E+03
 3.07030E+03
 3.04060E+03
 3.02970E+03
 3.01140E+03
 2.98880E+03
 2.98830E+03
 2.96380E+03
 2.97230E+03
 2.94290E+03
 2.92510E+03
 2.90890E+03
 2.93740E+03
 2.91960E+03
 2.90060E+03
 2.86400E+03
 2.88270E+03
 2.88800E+03
 2.86660E+03
 2.85900E+03
 2.84970E+03
 2.86330E+03
 2.83550E+03
 2.81650E+03
 2.84810E+03
 2.79860E+03
 2.80800E+03
 2.81660E+03
 2.80590E+03
 2.77430E+03
 2.77420E+03
 2.76950E+03
 2.77740E+03
 2.77650E+03
 2.76870E+03
 2.76550E+03
 2.76270E+03
 2.79280E+03
 2.74510E+03
 2.76640E+03
 2.76740E+03
 2.75720E+03
 2.72670E+03
 2.75090E+03
 2.72030E+03
 2.72860E+03
 2.74770E+03
 2.73090E+03
 2.72190E+03
 2.71980E+03
 2.72240E+03
 2.70670E+03
 2.70870E+03
 2.71900E+03
 2.72130E+03
 2.69270E+03
 2.72780E+03
 2.68510E+03
 2.71030E+03
 2.73450E+03
 2.70110E+03
 2.70640E+03
 2.72900E+03
 2.68250E+03
 2.67660E+03
 2.69830E+03
 2.69000E+03
 2.69110E+03
 2.67470E+03
 2.67920E+03
 2.67470E+03
 2.68010E+03
 2.68150E+03
 2.68210E+03
 2.69410E+03
 2.66020E+03
 2.66790E+03
 2.68580E+03
 2.68250E+03
 2.70160E+03
 2.70300E+03
 2.71190E+03
 2.70260E+03
 2.72270E+03
 2.75240E+03
 2.72390E+03
 2.74800E+03
 2.75980E+03
 2.72430E+03
 2.76770E+03
 2.79210E+03
 2.77940E+03
 2.79800E+03
 2.82100E+03
 2.83130E+03
 2.86860E+03
 2.88080E+03
 2.93590E+03
 2.98640E+03
 3.06670E+03
 3.14740E+03
 3.20230E+03
 3.24080E+03
 3.17610E+03
 3.07400E+03
 2.91500E+03
 2.79700E+03
 2.70580E+03
 2.64920E+03
 2.62670E+03
 2.59210E+03
 2.57900E+03
 2.58920E+03
 2.58010E+03
 2.56970E+03
 2.59070E+03
 2.57440E+03
 2.60500E+03
 2.60710E+03
 2.64450E+03
 2.66990E+03
 2.69320E+03
 2.75540E+03
 2.85100E+03
 2.95580E+03
 3.12470E+03
 3.37950E+03
 3.56780E+03
 3.78990E+03
 3.87140E+03
 3.81080E+03
 3.64970E+03
 3.44500E+03
 3.29540E+03
 3.11580E+03
 3.01690E+03
 2.93700E+03
 2.87330E+03
 2.82380E+03
 2.77900E+03
 2.72020E+03
 2.69380E+03
 2.65640E+03
 2.63720E+03
 2.62990E+03
 2.57800E+03
 2.54610E+03
 2.54210E+03
 2.53560E+03
 2.50440E+03
 2.51130E+03
 2.49400E+03
 2.46930E+03
 2.48230E+03
 2.47090E+03
 2.43280E+03
 2.46530E+03
 2.43650E+03
 2.43470E+03
 2.44750E+03
 2.46000E+03
 2.44930E+03
 2.42540E+03
 2.43170E+03
 2.44820E+03
 2.44040E+03
 2.43530E+03
 2.41580E+03
 2.44330E+03
 2.43570E+03
 2.43810E+03
 2.45080E+03
 2.40700E+03
 2.42200E+03
 2.40750E+03
 2.41100E+03
 2.38630E+03
 2.37860E+03
 2.36620E+03
 2.37790E+03
 2.37080E+03
 2.36100E+03
 2.35400E+03
 2.35390E+03
 2.33750E+03
 2.34180E+03
 2.33110E+03
 2.34130E+03
 2.33440E+03
 2.33150E+03
 2.31040E+03
 2.30870E+03
 2.32780E+03
 2.30310E+03
 2.28460E+03
 2.29890E+03
 2.28860E+03
 2.27420E+03
 2.27420E+03
 2.25990E+03
 2.25970E+03
 2.24830E+03
 2.23200E+03
 2.22930E+03
 2.21640E+03
 2.21290E+03
 2.20730E+03
 2.20320E+03
 2.20700E+03
 2.19310E+03
 2.20500E+03
 2.18810E+03
 2.17760E+03
 2.19070E+03
 2.17770E+03
 2.19370E+03
 2.17990E+03
 2.16910E+03
 2.16630E+03
 2.16000E+03
 2.14500E+03
 2.15820E+03
 2.15320E+03
 2.14800E+03
 2.14190E+03
 2.14580E+03
 2.12530E+03
 2.14950E+03
 2.12020E+03
 2.12770E+03
 2.13480E+03
 2.15010E+03
 2.14020E+03
 2.13530E+03
 2.13060E+03
 2.15500E+03
 2.16440E+03
 2.14150E+03
 2.15940E+03
 2.16640E+03
 2.17350E+03
 2.18300E+03
 2.18390E+03
 2.18450E+03
 2.22260E+03
 2.23900E+03
 2.24240E+03
 2.24730E+03
 2.26650E+03
 2.26850E+03
 2.29080E+03
 2.30940E+03
 2.33780E+03
 2.36090E+03
 2.39100E+03
 2.42310E+03
 2.45460E+03
 2.48820E+03
 2.55430E+03
 2.58490E+03
 2.65890E+03
 2.72480E+03
 2.82000E+03
 2.89700E+03
 3.02570E+03
 3.17020E+03
 3.28040E+03
 3.49450E+03
 3.66800E+03
 3.95060E+03
 4.24050E+03
 4.54750E+03
 4.91950E+03
 5.44970E+03
 6.01720E+03
 6.67420E+03
 7.46280E+03
 8.49090E+03
 9.55560E+03
 1.09431E+04
 1.23936E+04
 1.38449E+04
 1.54568E+04
 1.69062E+04
 1.80430E+04
 1.86050E+04
 1.88279E+04
 1.85516E+04
 1.79844E+04
 1.69534E+04
 1.58446E+04
 1.47116E+04
 1.36516E+04
 1.26596E+04
 1.16543E+04
 1.08984E+04
 1.01096E+04
 9.50910E+03
 8.82740E+03
 8.35950E+03
 7.94940E+03
 7.48110E+03
 7.15610E+03
 6.79870E+03
 6.54270E+03
 6.28230E+03
 6.06010E+03
 5.81430E+03
 5.68680E+03
 5.47260E+03
 5.34990E+03
 5.20390E+03
 5.06400E+03
 4.90430E+03
 4.81620E+03
 4.71440E+03
 4.60150E+03
 4.49110E+03
 4.39040E+03
 4.36010E+03
 4.30090E+03
 4.21950E+03
 4.11320E+03
 4.05710E+03
 4.01930E+03
 3.96720E+03
 3.91630E+03
 3.85680E+03
 3.78790E+03
 3.75890E+03
 3.71640E+03
 3.69340E+03
 3.65250E+03
 3.60760E+03
 3.56100E+03
 3.48950E+03
 3.51690E+03
 3.47930E+03
 3.41800E+03
 3.37920E+03
 3.38210E+03
 3.34460E+03
 3.32170E+03
 3.30680E+03
 3.27860E+03
 3.27050E+03
 3.27550E+03
 3.23590E+03
 3.19560E+03
 3.19820E+03
 3.14980E+03
 3.14550E+03
 3.13120E+03
 3.13280E+03
 3.12040E+03
 3.08150E+03
 3.08120E+03
 3.04530E+03
 3.05180E+03
 3.04180E+03
 2.98350E+03
 2.99250E+03
 2.98620E+03
 2.96720E+03
 2.95500E+03
 2.94640E+03
 2.94610E+03
 2.90810E+03
 2.92270E+03
 2.90840E+03
 2.91820E+03
 2.89740E+03
 2.88820E+03
 2.89000E+03
 2.86670E+03
 2.86780E+03
 2.82990E+03
 2.84970E+03
 2.82350E+03
 2.83370E+03
 2.81830E+03
 2.82540E+03
 2.80930E+03
 2.81550E+03
 2.79230E+03
 2.80920E+03
 2.80680E+03
 2.79200E+03
 2.80440E+03
 2.79500E+03
 2.77810E+03
 2.76450E+03
 2.77370E+03
 2.76820E+03
 2.77040E+03
 2.76250E+03
 2.76180E+03
 2.73490E+03
 2.76450E+03
 2.73850E+03
 2.75690E+03
 2.73580E+03
 2.74340E+03
 2.70410E+03
 2.69820E+03
 2.75470E+03
 2.72080E+03
 2.72250E+03
 2.71610E+03
 2.72680E+03
 2.72440E+03
 2.75080E+03
 2.74980E+03
 2.76890E+03
 2.82180E+03
 2.84330E+03
 2.86560E+03
 2.91120E+03
 2.96580E+03
 2.98390E+03
 2.97770E+03
 3.00960E+03
 2.98740E+03
 2.95420E+03
 2.94180E+03
 2.93740E+03
 2.90580E+03
 2.89950E+03
 2.87890E+03
 2.87000E+03
 2.83400E+03
 2.82610E+03
 2.82080E+03
 2.79860E+03
 2.80350E+03
 2.78150E+03
 2.76230E+03
 2.75860E+03
 2.73740E+03
 2.72950E+03
 2.74100E+03
 2.72620E+03
 2.71580E+03
 2.71390E+03
 2.70160E+03
 2.68770E+03
 2.70410E+03
 2.71260E+03
 2.71150E+03
 2.71750E+03
 2.71740E+03
 2.72770E+03
 2.72480E+03
 2.73310E+03
 2.70780E+03
 2.72150E+03
 2.71090E+03
 2.68130E+03
 2.66840E+03
 2.66300E+03
 2.66940E+03
 2.65520E+03
 2.64870E+03
 2.64160E+03
 2.65410E+03
 2.62590E+03
 2.60880E+03
 2.61200E+03
 2.60250E+03
 2.59810E+03
 2.60180E+03
 2.58660E+03
 2.60430E+03
 2.57930E+03
 2.59940E+03
 2.59300E+03
 2.57880E+03
 2.59790E+03
 2.59030E+03
 2.56810E+03
 2.57360E+03
 2.57540E+03
 2.56480E+03
 2.56810E+03
 2.57340E+03
 2.57740E+03
 2.57220E+03
 2.55850E+03
 2.57120E+03
 2.56490E+03
 2.56630E+03
 2.56350E+03
 2.57130E+03
 2.57900E+03
 2.56220E+03
 2.58260E+03
 2.54740E+03
 2.55860E+03
 2.53930E+03
 2.55250E+03
 2.52590E+03
 2.54430E+03
 2.54240E+03
 2.53490E+03
 2.52420E+03
 2.53680E+03
 2.52260E+03
 2.51610E+03
 2.50400E+03
 2.51260E+03
 2.52750E+03
 2.50850E+03
 2.50810E+03
 2.48410E+03
 2.47980E+03
 2.48690E+03
 2.49680E+03
 2.48810E+03
 2.48540E+03
 2.46060E+03
 2.45430E+03
 2.46280E+03
 2.46820E+03
 2.46610E+03
 2.45450E+03
 2.43360E+03
 2.43310E+03
 2.46410E+03
 2.44620E+03
 2.45410E+03
 2.42370E+03
 2.41760E+03
 2.44420E+03
 2.40920E+03
 2.40860E+03
 2.41430E+03
 2.41170E+03
 2.41640E+03
 2.40950E+03
 2.38300E+03
 2.39750E+03
 2.40490E+03
 2.38570E+03
 2.38370E+03
 2.37810E+03
 2.37290E+03
 2.37210E+03
 2.39980E+03
 2.37340E+03
 2.39110E+03
 2.37330E+03
 2.39130E+03
 2.37530E+03
 2.35670E+03
 2.36010E+03
 2.37910E+03
 2.36100E+03
 2.36150E+03
 2.35990E+03
 2.35770E+03
 2.32440E+03
 2.35380E+03
 2.35640E+03
 2.35900E+03
 2.35260E+03
 2.35590E+03
 2.35280E+03
 2.35050E+03
 2.33610E+03
 2.35610E+03
 2.34180E+03
 2.34810E+03
 2.33920E+03
 2.34550E+03
 2.34660E+03
 2.33000E+03
 2.33380E+03
 2.34420E+03
 2.33050E+03
 2.34490E+03
 2.33880E+03
 2.33270E+03
 2.33440E+03
 2.33410E+03
 2.33450E+03
 2.35310E+03
 2.34490E+03
 2.34120E+03
 2.34190E+03
 2.33540E+03
 2.34120E+03
 2.34260E+03
 2.32030E+03
 2.34850E+03
 2.35350E+03
 2.34230E+03
 2.33070E+03
 2.32540E+03
 2.34580E+03
 2.35000E+03
 2.33260E+03
 2.35700E+03
 2.34020E+03
 2.33940E+03
 2.34670E+03
 2.34430E+03
 2.33140E+03
 2.34350E+03
 2.34510E+03
 2.35880E+03
 2.34600E+03
 2.33330E+03
 2.34260E+03
 2.33610E+03
 2.35470E+03
 2.35040E+03
 2.33480E+03
 2.34930E+03
 2.34760E+03
 2.34470E+03
 2.33780E+03
 2.33520E+03
 2.33250E+03
 2.34600E+03
 2.33590E+03
 2.34370E+03
 2.31960E+03
 2.33100E+03
 2.31950E+03
 2.32850E+03
 2.34330E+03
 2.32320E+03
 2.31720E+03
 2.32250E+03
 2.34710E+03
 2.34630E+03
 2.33060E+03
 2.31790E+03
 2.32380E+03
 2.33450E+03
 2.33110E+03
 2.31820E+03
 2.32670E+03
 2.33550E+03
 2.33530E+03
 2.33920E+03
 2.34400E+03
 2.33110E+03
 2.35130E+03
 2.33220E+03
 2.32970E+03
 2.32010E+03
 2.33090E+03
 2.34470E+03
 2.34410E+03
 2.34810E+03
 2.35120E+03
 2.33410E+03
 2.35120E+03
 2.32770E+03
 2.32580E+03
 2.33040E+03
 2.34580E+03
 2.34880E+03
 2.33610E+03
 2.33110E+03
 2.32890E+03
 2.33970E+03
 2.33590E+03
 2.32380E+03
 2.34720E+03
 2.28890E+03
 2.32680E+03
 2.32010E+03
 2.32090E+03
 2.31250E+03
 2.33720E+03
 2.33350E+03
 2.32240E+03
 2.32770E+03
 2.32410E+03
 2.32090E+03
 2.32000E+03
 2.33870E+03
 2.35660E+03
 2.32060E+03
 2.32430E+03
 2.34440E+03
 2.34990E+03
 2.34130E+03
 2.33830E+03
 2.30630E+03
 2.33080E+03
 2.34410E+03
 2.33580E+03
 2.32430E+03
 2.32620E+03
 2.36020E+03
 2.34020E+03
 2.34760E+03
 2.35400E+03
 2.35460E+03
 2.34670E+03
 2.34910E+03
 2.33950E+03
 2.35790E+03
 2.34390E+03
 2.33250E+03
 2.34750E+03
 2.36210E+03
 2.34170E+03
 2.35320E+03
 2.35470E+03
 2.34430E+03
 2.33640E+03
 2.35310E+03
 2.33300E+03
 2.32890E+03
 2.33000E+03
 2.32690E+03
 2.33170E+03
 2.33380E+03
 2.32710E+03
 2.33840E+03
 2.32390E+03
 2.32820E+03
 2.31130E+03
 2.31370E+03
 2.31480E+03
 2.31190E+03
 2.29330E+03
 2.32140E+03
 2.31340E+03
 2.31710E+03
 2.30680E+03
 2.28880E+03
 2.29280E+03
 2.28180E+03
 2.27570E+03
 2.28000E+03
 2.28370E+03
 2.27740E+03
 2.26620E+03
 2.26920E+03
 2.27490E+03
 2.27240E+03
 2.28840E+03
 2.28500E+03
 2.26890E+03
 2.28140E+03
 2.28970E+03
 2.27600E+03
 2.28480E+03
 2.28820E+03
 2.28010E+03
 2.27740E+03
 2.28200E+03
 2.27290E+03
 2.26920E+03
 2.27540E+03
 2.27020E+03
 2.27550E+03
 2.27750E+03
 2.28600E+03
 2.27180E+03
 2.26680E+03
 2.27180E+03
 2.27860E+03
 2.26610E+03
 2.26760E+03
 2.26970E+03
 2.28250E+03
 2.28500E+03
 2.26310E+03
 2.28260E+03
 2.27920E+03
 2.27290E+03
 2.27140E+03
 2.26930E+03
 2.27000E+03
 2.27170E+03
 2.27680E+03
 2.27200E+03
 2.25900E+03
 2.27760E+03
 2.24550E+03
 2.25760E+03
 2.25950E+03
 2.25860E+03
 2.25870E+03
 2.26790E+03
 2.25180E+03
 2.26990E+03
 2.26140E+03
 2.28930E+03
 2.26560E+03
 2.27170E+03
 2.26160E+03
 2.26840E+03
 2.26890E+03
 2.27930E+03
 2.24810E+03
 2.27850E+03
 2.25450E+03
 2.25910E+03
 2.24710E+03
 2.26890E+03
 2.26670E+03
 2.26980E+03
 2.24120E+03
 2.27760E+03
 2.24760E+03
 2.24850E+03
 2.24890E+03
 2.25240E+03
 2.25430E+03
 2.25160E+03
 2.26660E+03
 2.25970E+03
 2.25650E+03
 2.25390E+03
 2.25300E+03
 2.25940E+03
 2.27290E+03
 2.26120E+03
 2.24960E+03
 2.24420E+03
 2.25370E+03
 2.25930E+03
 2.26280E+03
 2.26040E+03
 2.26190E+03
 2.25940E+03
 2.25220E+03
 2.24780E+03
 2.27240E+03
 2.26380E+03
 2.26340E+03
 2.24910E+03
 2.24970E+03
 2.23890E+03
 2.25550E+03
 2.25770E+03
 2.24620E+03
 2.26770E+03
 2.25110E+03
 2.27510E+03
 2.26350E+03
 2.27250E+03
 2.27540E+03
 2.28610E+03
 2.28150E+03
 2.28420E+03
 2.29810E+03
 2.30590E+03
 2.28440E+03
 2.30500E+03
 2.31060E+03
 2.31670E+03
 2.31280E+03
 2.33410E+03
 2.33820E+03
 2.36690E+03
 2.33880E+03
 2.36430E+03
 2.41050E+03
 2.43660E+03
 2.44380E+03
 2.48130E+03
 2.51950E+03
 2.56810E+03
 2.61290E+03
 2.64090E+03
 2.68230E+03
 2.71340E+03
 2.76720E+03
 2.81170E+03
 2.86960E+03
 2.89270E+03
 2.95590E+03
 3.00420E+03
 3.03440E+03
 3.12060E+03
 3.18160E+03
 3.17100E+03
 3.19750E+03
 3.25690E+03
 3.27730E+03
 3.26950E+03
 3.25740E+03
 3.25960E+03
 3.25810E+03
 3.22740E+03
 3.24860E+03
 3.21480E+03
 3.19490E+03
 3.23220E+03
 3.22200E+03
 3.21820E+03
 3.20260E+03
 3.24060E+03
 3.22270E+03
 3.22040E+03
 3.20610E+03
 3.21940E+03
 3.19830E+03
 3.19650E+03
 3.18930E+03
 3.25210E+03
 3.22450E+03
 3.21430E+03
 3.21800E+03
 3.25240E+03
 3.21750E+03
 3.23680E+03
 3.26000E+03
 3.22960E+03
 3.24430E+03
 3.25000E+03
 3.25890E+03
 3.23010E+03
 3.26510E+03
 3.26570E+03
 3.22980E+03
 3.24720E+03
 3.28420E+03
 3.28940E+03
 3.27940E+03
 3.26820E+03
 3.26630E+03
 3.28530E+03
 3.28540E+03
 3.26030E+03
 3.28370E+03
 3.29710E+03
 3.30650E+03
 3.29710E+03
 3.28080E+03
 3.28790E+03
 3.27240E+03
 3.27910E+03
 3.24250E+03
 3.26440E+03
 3.25680E+03
 3.27950E+03
 3.25520E+03
 3.23070E+03
 3.24690E+03
 3.22150E+03
 3.21950E+03
 3.19490E+03
 3.16300E+03
 3.15360E+03
 3.13790E+03
 3.08050E+03
 3.02860E+03
 3.00370E+03
 2.94030E+03
 2.89900E+03
 2.85400E+03
 2.81130E+03
 2.76080E+03
 2.71420E+03
 2.66840E+03
 2.65400E+03
 2.62280E+03
 2.59970E+03
 2.56570E+03
 2.53550E+03
 2.52930E+03
 2.51820E+03
 2.48810E+03
 2.45470E+03
 2.45610E+03
 2.41930E+03
 2.42630E+03
 2.42640E+03
 2.40210E+03
 2.40760E+03
 2.38830E+03
 2.36680E+03
 2.37710E+03
 2.35430E+03
 2.35230E+03
 2.34350E+03
 2.32820E+03
 2.31110E+03
 2.33620E+03
 2.32700E+03
 2.29670E+03
 2.31880E+03
 2.30540E+03
 2.29500E+03
 2.26700E+03
 2.25870E+03
 2.24950E+03
 2.23330E+03
 2.25560E+03
 2.22980E+03
 2.23340E+03
 2.22600E+03
 2.22190E+03
 2.22420E+03
 2.19900E+03
 2.19230E+03
 2.19140E+03
 2.19070E+03
 2.18360E+03
 2.18210E+03
 2.17960E+03
 2.16580E+03
 2.14640E+03
 2.15030E+03
 2.13480E+03
 2.13730E+03
 2.13300E+03
 2.12140E+03
 2.13080E+03
 2.11880E+03
 2.11160E+03
 2.10380E+03
 2.08960E+03
 2.09040E+03
 2.09030E+03
 2.09770E+03
 2.07630E+03
 2.07200E+03
 2.07400E+03
 2.06420E+03
 2.07970E+03
 2.08270E+03
 2.06220E+03
 2.05390E+03
 2.06190E+03
 2.04450E+03
 2.06390E+03
 2.07590E+03
 2.06080E+03
 2.05690E+03
 2.06440E+03
 2.04330E+03
 2.03570E+03
 2.04590E+03
 2.05940E+03
 2.05080E+03
 2.04670E+03
 2.04150E+03
 2.04210E+03
 2.03900E+03
 2.03400E+03
 2.04350E+03
 2.03570E+03
 2.04830E+03
 2.03830E+03
 2.04330E+03
 2.03990E+03
 2.04320E+03
 2.04000E+03
 2.03260E+03
 2.04360E+03
 2.03470E+03
 2.02940E+03
 2.02790E+03
 2.04490E+03
 2.00970E+03
 2.03630E+03
 2.02330E+03
 2.02120E+03
 2.01940E+03
 2.04170E+03
 2.02620E+03
 2.01790E+03
 2.03710E+03
 2.02140E+03
 2.03160E+03
 2.02500E+03
 2.03130E+03
 2.02790E+03
 2.01580E+03
 2.01610E+03
 2.02070E+03
 2.02630E+03
 2.02150E+03
 2.02160E+03
 2.02210E+03
 2.02810E+03
 2.02820E+03
 2.02760E+03
 2.01570E+03
 2.03050E+03
 2.02740E+03
 2.01490E+03
 2.03240E+03
 2.01850E+03
 2.01880E+03
 2.01130E+03
 2.01590E+03
 2.02440E+03
 2.02830E+03
 2.02430E+03
 2.00790E+03
 2.00640E+03
 2.01320E+03
 2.01630E+03
 2.02150E+03
 2.00510E+03
 2.02560E+03
 2.02630E+03
 2.01630E+03
 1.98930E+03
 2.02930E+03
 2.01300E+03
 2.02140E+03
 2.01630E+03
 1.99880E+03
 2.00480E+03
 2.00530E+03
 2.01760E+03
 2.00910E+03
 2.00680E+03
 2.01110E+03
 2.00250E+03
 2.02070E+03
 2.01940E+03
 2.00990E+03
 2.01890E+03
 2.00700E+03
