 1.57970E+03
 1.57820E+03
 1.57900E+03
 1.57870E+03
 1.57860E+03
 1.58150E+03
 1.58270E+03
 1.58150E+03
 1.58160E+03
 1.58120E+03
 1.58000E+03
 1.58200E+03
 1.57860E+03
 1.58020E+03
 1.58020E+03
 1.57840E+03
 1.57820E+03
 1.57820E+03
 1.58210E+03
 1.57930E+03
 1.58160E+03
 1.58220E+03
 1.58130E+03
 1.58120E+03
 1.57980E+03
 1.58240E+03
 1.58040E+03
 1.58050E+03
 1.58140E+03
 1.58040E+03
 1.57930E+03
 1.57940E+03
 1.58220E+03
 1.58030E+03
 1.57890E+03
 1.57950E+03
 1.57890E+03
 1.58280E+03
 1.57840E+03
 1.57970E+03
 1.57820E+03
 1.58110E+03
 1.58180E+03
 1.57970E+03
 1.58070E+03
 1.58090E+03
 1.57940E+03
 1.57760E+03
 1.58120E+03
 1.57780E+03
 1.58030E+03
 1.57860E+03
 1.58100E+03
 1.57820E+03
 1.57910E+03
 1.58010E+03
 1.57870E+03
 1.57900E+03
 1.57940E+03
 1.57950E+03
 1.57780E+03
 1.58150E+03
 1.58340E+03
 1.57920E+03
 1.57990E+03
 1.58200E+03
 1.58140E+03
 1.58070E+03
 1.57940E+03
 1.57960E+03
 1.58090E+03
 1.57700E+03
 1.57990E+03
 1.57880E+03
 1.58250E+03
 1.58420E+03
 1.60580E+03
 1.67490E+03
 1.78100E+03
 1.75600E+03
 1.64070E+03
 1.58970E+03
 1.58240E+03
 1.58140E+03
 1.58060E+03
 1.58290E+03
 1.57920E+03
 1.58170E+03
 1.58190E+03
 1.58010E+03
 1.58050E+03
 1.58180E+03
 1.58160E+03
 1.58010E+03
 1.58060E+03
 1.58240E+03
 1.58010E+03
 1.58160E+03
 1.58140E+03
 1.57830E+03
 1.57880E+03
 1.58160E+03
 1.58050E+03
 1.58250E+03
 1.58040E+03
 1.58270E+03
 1.57990E+03
 1.58180E+03
 1.58330E+03
 1.58190E+03
 1.58000E+03
 1.58060E+03
 1.58030E+03
 1.58060E+03
 1.58480E+03
 1.58090E+03
 1.57960E+03
 1.57990E+03
 1.58060E+03
 1.58110E+03
 1.57990E+03
 1.58220E+03
 1.58050E+03
 1.57980E+03
 1.58100E+03
 1.57830E+03
 1.57860E+03
 1.57980E+03
 1.58240E+03
 1.58040E+03
 1.58260E+03
 1.57940E+03
 1.57970E+03
 1.57840E+03
 1.57960E+03
 1.58080E+03
 1.57890E+03
 1.57970E+03
 1.58010E+03
 1.58020E+03
 1.58240E+03
 1.57870E+03
 1.58340E+03
 1.58070E+03
 1.57920E+03
 1.57950E+03
 1.58320E+03
 1.58100E+03
 1.58260E+03
 1.58420E+03
 1.58490E+03
 1.58850E+03
 1.59110E+03
 1.60100E+03
 1.60380E+03
 1.61170E+03
 1.62280E+03
 1.63530E+03
 1.65540E+03
 1.67450E+03
 1.69780E+03
 1.72180E+03
 1.75910E+03
 1.78650E+03
 1.83550E+03
 1.87860E+03
 1.93530E+03
 1.97740E+03
 2.01830E+03
 2.11540E+03
 2.19570E+03
 2.27390E+03
 2.35780E+03
 2.45680E+03
 2.56570E+03
 2.63540E+03
 2.72600E+03
 2.81590E+03
 2.91050E+03
 2.95750E+03
 3.02300E+03
 3.05400E+03
 3.04220E+03
 3.09590E+03
 3.12870E+03
 3.10520E+03
 3.15200E+03
 3.09600E+03
 3.10470E+03
 3.14470E+03
 3.13850E+03
 3.15110E+03
 3.16630E+03
 3.15800E+03
 3.14720E+03
 3.15740E+03
 3.16140E+03
 3.16040E+03
 3.17740E+03
 3.18010E+03
 3.19400E+03
 3.18330E+03
 3.19360E+03
 3.19690E+03
 3.20380E+03
 3.18360E+03
 3.17390E+03
 3.17650E+03
 3.17500E+03
 3.15110E+03
 3.17040E+03
 3.13860E+03
 3.14930E+03
 3.13660E+03
 3.11340E+03
 3.10540E+03
 3.07730E+03
 3.10950E+03
 3.07990E+03
 3.08460E+03
 3.08000E+03
 3.07810E+03
 3.08150E+03
 3.06830E+03
 3.05980E+03
 3.05440E+03
 3.05220E+03
 3.05360E+03
 3.02830E+03
 3.06850E+03
 3.04150E+03
 3.05160E+03
 3.02840E+03
 3.06590E+03
 3.03480E+03
 3.03970E+03
 3.04140E+03
 3.02190E+03
 3.02290E+03
 3.03830E+03
 3.04890E+03
 3.02620E+03
 3.01670E+03
 3.00230E+03
 3.00600E+03
 3.02420E+03
 2.99030E+03
 2.98200E+03
 2.98380E+03
 2.99550E+03
 3.00510E+03
 2.99190E+03
 2.99270E+03
 2.99040E+03
 2.99440E+03
 2.96400E+03
 2.98700E+03
 2.99230E+03
 2.97050E+03
 2.97270E+03
 2.97410E+03
 2.95560E+03
 2.95610E+03
 2.97230E+03
 2.97670E+03
 2.95490E+03
 2.96200E+03
 2.95550E+03
 2.95290E+03
 2.95070E+03
 2.92250E+03
 2.93270E+03
 2.92220E+03
 2.91670E+03
 2.91290E+03
 2.92200E+03
 2.90420E+03
 2.91100E+03
 2.91860E+03
 2.89890E+03
 2.90570E+03
 2.89200E+03
 2.85170E+03
 2.88900E+03
 2.87490E+03
 2.88460E+03
 2.85700E+03
 2.84560E+03
 2.84010E+03
 2.86920E+03
 2.85930E+03
 2.87730E+03
 2.82850E+03
 2.84520E+03
 2.84690E+03
 2.83610E+03
 2.85900E+03
 2.83810E+03
 2.83440E+03
 2.81310E+03
 2.84720E+03
 2.84070E+03
 2.81160E+03
 2.81430E+03
 2.86180E+03
 2.81300E+03
 2.83770E+03
 2.82300E+03
 2.82300E+03
 2.81630E+03
 2.81800E+03
 2.81110E+03
 2.80890E+03
 2.78810E+03
 2.82330E+03
 2.82430E+03
 2.80240E+03
 2.78830E+03
 2.78830E+03
 2.80830E+03
 2.79550E+03
 2.78920E+03
 2.78250E+03
 2.77200E+03
 2.78560E+03
 2.76030E+03
 2.80620E+03
 2.77470E+03
 2.77330E+03
 2.80360E+03
 2.75920E+03
 2.78690E+03
 2.79060E+03
 2.77850E+03
 2.77670E+03
 2.77580E+03
 2.79900E+03
 2.75660E+03
 2.77360E+03
 2.76490E+03
 2.76300E+03
 2.77690E+03
 2.77320E+03
 2.77270E+03
 2.79760E+03
 2.80180E+03
 2.79460E+03
 2.80760E+03
 2.77650E+03
 2.79970E+03
 2.79850E+03
 2.78790E+03
 2.78950E+03
 2.81160E+03
 2.79260E+03
 2.78780E+03
 2.79070E+03
 2.78700E+03
 2.81020E+03
 2.81530E+03
 2.80470E+03
 2.84570E+03
 2.84960E+03
 2.85120E+03
 2.86860E+03
 2.88440E+03
 2.90500E+03
 2.92670E+03
 2.95680E+03
 2.92440E+03
 2.92160E+03
 2.91860E+03
 2.95180E+03
 2.90660E+03
 2.93180E+03
 2.90760E+03
 2.92140E+03
 2.90900E+03
 2.90310E+03
 2.91870E+03
 2.88110E+03
 2.87530E+03
 2.88860E+03
 2.87880E+03
 2.87090E+03
 2.87860E+03
 2.84290E+03
 2.85220E+03
 2.88380E+03
 2.87570E+03
 2.86040E+03
 2.86820E+03
 2.87450E+03
 2.86690E+03
 2.88950E+03
 2.88170E+03
 2.86550E+03
 2.85850E+03
 2.84070E+03
 2.87060E+03
 2.84110E+03
 2.82500E+03
 2.84090E+03
 2.86040E+03
 2.86260E+03
 2.83980E+03
 2.84880E+03
 2.87350E+03
 2.85240E+03
 2.84190E+03
 2.86370E+03
 2.83080E+03
 2.85730E+03
 2.86130E+03
 2.84740E+03
 2.86930E+03
 2.87430E+03
 2.85000E+03
 2.86660E+03
 2.85170E+03
 2.87100E+03
 2.86840E+03
 2.83710E+03
 2.83760E+03
 2.83940E+03
 2.84350E+03
 2.86060E+03
 2.83660E+03
 2.88050E+03
 2.87270E+03
 2.89460E+03
 2.91380E+03
 2.91460E+03
 2.90450E+03
 2.88120E+03
 2.87370E+03
 2.90550E+03
 2.88630E+03
 2.90760E+03
 2.90840E+03
 2.93090E+03
 2.88790E+03
 2.91280E+03
 2.92130E+03
 2.92770E+03
 2.93800E+03
 2.94520E+03
 2.95820E+03
 2.92580E+03
 2.95260E+03
 2.95910E+03
 2.96690E+03
 2.97700E+03
 3.00200E+03
 2.99840E+03
 3.02450E+03
 3.03970E+03
 3.04300E+03
 3.04600E+03
 3.06060E+03
 3.06750E+03
 3.10490E+03
 3.13510E+03
 3.18070E+03
 3.20450E+03
 3.21490E+03
 3.24200E+03
 3.27990E+03
 3.22940E+03
 3.22740E+03
 3.18510E+03
 3.18200E+03
 3.12920E+03
 3.07020E+03
 3.05600E+03
 3.01340E+03
 3.03450E+03
 2.97970E+03
 2.98210E+03
 2.98140E+03
 2.96270E+03
 2.94010E+03
 2.94170E+03
 2.92300E+03
 2.89430E+03
 2.89170E+03
 2.87790E+03
 2.87450E+03
 2.86870E+03
 2.84710E+03
 2.85980E+03
 2.84290E+03
 2.83300E+03
 2.80850E+03
 2.81110E+03
 2.80610E+03
 2.81380E+03
 2.79840E+03
 2.78450E+03
 2.78030E+03
 2.80310E+03
 2.78790E+03
 2.77860E+03
 2.76270E+03
 2.76800E+03
 2.75260E+03
 2.73260E+03
 2.73310E+03
 2.73450E+03
 2.72710E+03
 2.73070E+03
 2.71920E+03
 2.71530E+03
 2.72290E+03
 2.71980E+03
 2.69080E+03
 2.72730E+03
 2.70290E+03
 2.69520E+03
 2.70250E+03
 2.67800E+03
 2.70080E+03
 2.70010E+03
 2.69020E+03
 2.69300E+03
 2.69160E+03
 2.66390E+03
 2.65850E+03
 2.66620E+03
 2.66090E+03
 2.66440E+03
 2.68750E+03
 2.66040E+03
 2.67400E+03
 2.66880E+03
 2.63050E+03
 2.66280E+03
 2.65690E+03
 2.63150E+03
 2.60460E+03
 2.60490E+03
 2.61290E+03
 2.62370E+03
 2.63380E+03
 2.64760E+03
 2.60790E+03
 2.60670E+03
 2.62050E+03
 2.61720E+03
 2.64920E+03
 2.63070E+03
 2.62680E+03
 2.60650E+03
 2.65480E+03
 2.63570E+03
 2.61710E+03
 2.65840E+03
 2.65370E+03
 2.66330E+03
 2.65660E+03
 2.68070E+03
 2.67720E+03
 2.68090E+03
 2.69790E+03
 2.69640E+03
 2.74170E+03
 2.75230E+03
 2.79050E+03
 2.80510E+03
 2.82860E+03
 2.92550E+03
 2.95480E+03
 2.99260E+03
 2.97220E+03
 2.97250E+03
 2.91100E+03
 2.81820E+03
 2.72590E+03
 2.66620E+03
 2.62520E+03
 2.59170E+03
 2.56150E+03
 2.53450E+03
 2.54320E+03
 2.52400E+03
 2.53080E+03
 2.51860E+03
 2.52070E+03
 2.54120E+03
 2.50860E+03
 2.52400E+03
 2.55990E+03
 2.59360E+03
 2.59710E+03
 2.66050E+03
 2.73690E+03
 2.80780E+03
 2.94570E+03
 3.10420E+03
 3.23550E+03
 3.34350E+03
 3.39210E+03
 3.36290E+03
 3.22290E+03
 3.13350E+03
 3.00940E+03
 2.93610E+03
 2.83410E+03
 2.74740E+03
 2.70300E+03
 2.62890E+03
 2.64350E+03
 2.61230E+03
 2.57280E+03
 2.55260E+03
 2.53480E+03
 2.53270E+03
 2.49990E+03
 2.48840E+03
 2.47070E+03
 2.44700E+03
 2.46590E+03
 2.44860E+03
 2.43190E+03
 2.41530E+03
 2.40340E+03
 2.40810E+03
 2.39610E+03
 2.38850E+03
 2.40580E+03
 2.39100E+03
 2.39000E+03
 2.39570E+03
 2.37250E+03
 2.40970E+03
 2.38550E+03
 2.38560E+03
 2.36660E+03
 2.39390E+03
 2.38180E+03
 2.36400E+03
 2.36800E+03
 2.38390E+03
 2.39140E+03
 2.38820E+03
 2.38710E+03
 2.36890E+03
 2.35160E+03
 2.32340E+03
 2.32900E+03
 2.30700E+03
 2.28200E+03
 2.29190E+03
 2.31160E+03
 2.28350E+03
 2.26440E+03
 2.28260E+03
 2.27840E+03
 2.25960E+03
 2.27190E+03
 2.25910E+03
 2.25950E+03
 2.24930E+03
 2.23550E+03
 2.25070E+03
 2.22450E+03
 2.21660E+03
 2.22070E+03
 2.21270E+03
 2.19920E+03
 2.19010E+03
 2.18410E+03
 2.20190E+03
 2.16920E+03
 2.18010E+03
 2.14810E+03
 2.13720E+03
 2.15350E+03
 2.13080E+03
 2.14410E+03
 2.11840E+03
 2.12650E+03
 2.12110E+03
 2.12420E+03
 2.11460E+03
 2.12150E+03
 2.13090E+03
 2.11620E+03
 2.10430E+03
 2.11730E+03
 2.11090E+03
 2.10140E+03
 2.10790E+03
 2.09570E+03
 2.09660E+03
 2.08530E+03
 2.07420E+03
 2.08930E+03
 2.08430E+03
 2.09330E+03
 2.08300E+03
 2.10600E+03
 2.09110E+03
 2.09820E+03
 2.09620E+03
 2.10080E+03
 2.10640E+03
 2.08910E+03
 2.11890E+03
 2.11690E+03
 2.12480E+03
 2.12820E+03
 2.14140E+03
 2.14430E+03
 2.13250E+03
 2.15880E+03
 2.16820E+03
 2.17730E+03
 2.19000E+03
 2.19750E+03
 2.20810E+03
 2.22430E+03
 2.25320E+03
 2.25480E+03
 2.28040E+03
 2.29700E+03
 2.31650E+03
 2.35860E+03
 2.37650E+03
 2.42460E+03
 2.46050E+03
 2.51420E+03
 2.55810E+03
 2.63370E+03
 2.69680E+03
 2.81290E+03
 2.89690E+03
 2.99290E+03
 3.12920E+03
 3.31380E+03
 3.47300E+03
 3.69860E+03
 3.94970E+03
 4.23270E+03
 4.58810E+03
 4.97720E+03
 5.50450E+03
 6.09760E+03
 6.75490E+03
 7.59100E+03
 8.58520E+03
 9.72770E+03
 1.10848E+04
 1.25626E+04
 1.42343E+04
 1.57388E+04
 1.73319E+04
 1.85849E+04
 1.92366E+04
 1.94967E+04
 1.91035E+04
 1.84154E+04
 1.74026E+04
 1.63755E+04
 1.51345E+04
 1.40035E+04
 1.29694E+04
 1.20638E+04
 1.11468E+04
 1.04417E+04
 9.70840E+03
 9.08740E+03
 8.57600E+03
 8.03430E+03
 7.60000E+03
 7.25580E+03
 6.93540E+03
 6.61200E+03
 6.37480E+03
 6.14520E+03
 5.90190E+03
 5.72800E+03
 5.53200E+03
 5.37830E+03
 5.22540E+03
 5.08560E+03
 4.95260E+03
 4.82670E+03
 4.68940E+03
 4.60970E+03
 4.50140E+03
 4.46620E+03
 4.38300E+03
 4.30460E+03
 4.19450E+03
 4.15050E+03
 4.07390E+03
 4.03020E+03
 3.94960E+03
 3.88870E+03
 3.88430E+03
 3.81700E+03
 3.75760E+03
 3.71180E+03
 3.69890E+03
 3.63610E+03
 3.57740E+03
 3.55500E+03
 3.53680E+03
 3.49450E+03
 3.45770E+03
 3.47230E+03
 3.42760E+03
 3.36150E+03
 3.34900E+03
 3.34210E+03
 3.29870E+03
 3.21980E+03
 3.26510E+03
 3.21890E+03
 3.24910E+03
 3.21020E+03
 3.15280E+03
 3.16650E+03
 3.15170E+03
 3.11380E+03
 3.10320E+03
 3.09740E+03
 3.08160E+03
 3.03270E+03
 3.02410E+03
 3.00550E+03
 3.00470E+03
 3.00720E+03
 2.99080E+03
 2.97390E+03
 2.96190E+03
 2.92840E+03
 2.92250E+03
 2.91680E+03
 2.90610E+03
 2.88100E+03
 2.87720E+03
 2.87480E+03
 2.87770E+03
 2.87090E+03
 2.85810E+03
 2.83050E+03
 2.83230E+03
 2.81290E+03
 2.81700E+03
 2.82110E+03
 2.81160E+03
 2.76660E+03
 2.76820E+03
 2.77660E+03
 2.78920E+03
 2.75130E+03
 2.74330E+03
 2.75670E+03
 2.72480E+03
 2.75420E+03
 2.73910E+03
 2.74160E+03
 2.73970E+03
 2.74080E+03
 2.71140E+03
 2.71940E+03
 2.72350E+03
 2.71640E+03
 2.69000E+03
 2.68440E+03
 2.69270E+03
 2.68950E+03
 2.67410E+03
 2.66610E+03
 2.67490E+03
 2.71800E+03
 2.70940E+03
 2.66430E+03
 2.67130E+03
 2.69540E+03
 2.69390E+03
 2.72470E+03
 2.71210E+03
 2.72930E+03
 2.73190E+03
 2.78280E+03
 2.81700E+03
 2.84550E+03
 2.89150E+03
 2.92200E+03
 2.96050E+03
 2.99670E+03
 2.94000E+03
 2.96470E+03
 2.95660E+03
 2.93330E+03
 2.91630E+03
 2.90090E+03
 2.85170E+03
 2.86250E+03
 2.84310E+03
 2.81510E+03
 2.78130E+03
 2.80980E+03
 2.77850E+03
 2.75410E+03
 2.76430E+03
 2.73220E+03
 2.71420E+03
 2.73000E+03
 2.69780E+03
 2.68860E+03
 2.66520E+03
 2.67390E+03
 2.67430E+03
 2.66560E+03
 2.67280E+03
 2.65710E+03
 2.68770E+03
 2.66600E+03
 2.66590E+03
 2.66420E+03
 2.68920E+03
 2.68230E+03
 2.66850E+03
 2.69720E+03
 2.70270E+03
 2.67780E+03
 2.68050E+03
 2.66100E+03
 2.63800E+03
 2.63530E+03
 2.60990E+03
 2.60230E+03
 2.60820E+03
 2.60680E+03
 2.57580E+03
 2.57980E+03
 2.59940E+03
 2.57720E+03
 2.58360E+03
 2.58740E+03
 2.59070E+03
 2.59610E+03
 2.56960E+03
 2.57650E+03
 2.58700E+03
 2.55580E+03
 2.54630E+03
 2.55650E+03
 2.54750E+03
 2.53680E+03
 2.55510E+03
 2.54170E+03
 2.56110E+03
 2.54380E+03
 2.53380E+03
 2.54470E+03
 2.54690E+03
 2.55560E+03
 2.53850E+03
 2.53600E+03
 2.55250E+03
 2.54720E+03
 2.54590E+03
 2.55100E+03
 2.52940E+03
 2.53060E+03
 2.53990E+03
 2.54700E+03
 2.54240E+03
 2.52250E+03
 2.52300E+03
 2.54010E+03
 2.49770E+03
 2.50850E+03
 2.49990E+03
 2.51330E+03
 2.47560E+03
 2.50220E+03
 2.49230E+03
 2.49530E+03
 2.47460E+03
 2.47410E+03
 2.49020E+03
 2.46860E+03
 2.45930E+03
 2.45700E+03
 2.46660E+03
 2.45360E+03
 2.44090E+03
 2.45840E+03
 2.45680E+03
 2.42870E+03
 2.43710E+03
 2.44160E+03
 2.42680E+03
 2.41700E+03
 2.44410E+03
 2.43150E+03
 2.43370E+03
 2.40880E+03
 2.41100E+03
 2.40910E+03
 2.39920E+03
 2.40860E+03
 2.39970E+03
 2.40130E+03
 2.39910E+03
 2.38480E+03
 2.38900E+03
 2.37390E+03
 2.37700E+03
 2.35530E+03
 2.36950E+03
 2.36260E+03
 2.36920E+03
 2.37200E+03
 2.36100E+03
 2.35490E+03
 2.33710E+03
 2.35950E+03
 2.36070E+03
 2.33140E+03
 2.33620E+03
 2.33240E+03
 2.33510E+03
 2.31860E+03
 2.32540E+03
 2.33630E+03
 2.33860E+03
 2.33560E+03
 2.34300E+03
 2.33790E+03
 2.33170E+03
 2.31610E+03
 2.33140E+03
 2.32570E+03
 2.33990E+03
 2.33940E+03
 2.34690E+03
 2.32120E+03
 2.31610E+03
 2.32210E+03
 2.30950E+03
 2.32950E+03
 2.30750E+03
 2.31370E+03
 2.30670E+03
 2.31560E+03
 2.31720E+03
 2.30850E+03
 2.29890E+03
 2.30590E+03
 2.31890E+03
 2.30950E+03
 2.31890E+03
 2.29660E+03
 2.29820E+03
 2.31010E+03
 2.31880E+03
 2.32080E+03
 2.31540E+03
 2.31880E+03
 2.31540E+03
 2.31990E+03
 2.31270E+03
 2.31650E+03
 2.30420E+03
 2.30280E+03
 2.30650E+03
 2.29910E+03
 2.31300E+03
 2.30380E+03
 2.30060E+03
 2.31610E+03
 2.29960E+03
 2.31340E+03
 2.30240E+03
 2.30760E+03
 2.31370E+03
 2.31360E+03
 2.30220E+03
 2.29610E+03
 2.30150E+03
 2.31020E+03
 2.28440E+03
 2.32740E+03
 2.31840E+03
 2.32140E+03
 2.30330E+03
 2.29710E+03
 2.32500E+03
 2.33320E+03
 2.31120E+03
 2.30980E+03
 2.28490E+03
 2.31590E+03
 2.30520E+03
 2.28860E+03
 2.29080E+03
 2.29780E+03
 2.30050E+03
 2.28710E+03
 2.30510E+03
 2.28510E+03
 2.28770E+03
 2.31100E+03
 2.29880E+03
 2.28790E+03
 2.29630E+03
 2.29560E+03
 2.28950E+03
 2.30010E+03
 2.31000E+03
 2.30200E+03
 2.29140E+03
 2.29610E+03
 2.30940E+03
 2.28760E+03
 2.31060E+03
 2.30310E+03
 2.29110E+03
 2.31090E+03
 2.29390E+03
 2.31920E+03
 2.30420E+03
 2.29350E+03
 2.30370E+03
 2.31960E+03
 2.28400E+03
 2.29060E+03
 2.30490E+03
 2.29110E+03
 2.29280E+03
 2.28920E+03
 2.31330E+03
 2.31500E+03
 2.28970E+03
 2.29680E+03
 2.31110E+03
 2.31140E+03
 2.30710E+03
 2.29470E+03
 2.28470E+03
 2.31270E+03
 2.28210E+03
 2.30600E+03
 2.28980E+03
 2.28540E+03
 2.30680E+03
 2.28740E+03
 2.31220E+03
 2.30610E+03
 2.30240E+03
 2.30140E+03
 2.32530E+03
 2.30850E+03
 2.32040E+03
 2.30550E+03
 2.31240E+03
 2.29590E+03
 2.30680E+03
 2.30760E+03
 2.30930E+03
 2.33530E+03
 2.31630E+03
 2.32750E+03
 2.31650E+03
 2.33130E+03
 2.32550E+03
 2.32960E+03
 2.33030E+03
 2.33630E+03
 2.30570E+03
 2.32060E+03
 2.31690E+03
 2.31040E+03
 2.30680E+03
 2.32500E+03
 2.31500E+03
 2.31910E+03
 2.31710E+03
 2.30870E+03
 2.30890E+03
 2.31260E+03
 2.32640E+03
 2.29730E+03
 2.30920E+03
 2.30430E+03
 2.31200E+03
 2.30720E+03
 2.29720E+03
 2.29140E+03
 2.31240E+03
 2.28300E+03
 2.28800E+03
 2.30040E+03
 2.29100E+03
 2.30110E+03
 2.27240E+03
 2.27810E+03
 2.27770E+03
 2.25620E+03
 2.27290E+03
 2.27350E+03
 2.27640E+03
 2.25910E+03
 2.26630E+03
 2.26580E+03
 2.27050E+03
 2.24780E+03
 2.24770E+03
 2.26350E+03
 2.26080E+03
 2.26650E+03
 2.26060E+03
 2.26590E+03
 2.25930E+03
 2.25040E+03
 2.27120E+03
 2.24450E+03
 2.25470E+03
 2.24570E+03
 2.25410E+03
 2.23810E+03
 2.24480E+03
 2.25470E+03
 2.25030E+03
 2.24710E+03
 2.24120E+03
 2.23750E+03
 2.24940E+03
 2.25790E+03
 2.24800E+03
 2.26270E+03
 2.25620E+03
 2.23890E+03
 2.25090E+03
 2.26310E+03
 2.24820E+03
 2.24290E+03
 2.26280E+03
 2.24690E+03
 2.24680E+03
 2.25660E+03
 2.25970E+03
 2.25310E+03
 2.25290E+03
 2.25820E+03
 2.23780E+03
 2.25130E+03
 2.25010E+03
 2.24570E+03
 2.26300E+03
 2.23030E+03
 2.25510E+03
 2.24880E+03
 2.24830E+03
 2.24420E+03
 2.24080E+03
 2.24610E+03
 2.25190E+03
 2.25170E+03
 2.25350E+03
 2.24380E+03
 2.24720E+03
 2.25460E+03
 2.23740E+03
 2.24010E+03
 2.25960E+03
 2.25350E+03
 2.25510E+03
 2.23940E+03
 2.24680E+03
 2.23670E+03
 2.23630E+03
 2.25060E+03
 2.24520E+03
 2.23520E+03
 2.23980E+03
 2.23060E+03
 2.23730E+03
 2.23990E+03
 2.22480E+03
 2.24340E+03
 2.24230E+03
 2.23300E+03
 2.23640E+03
 2.24940E+03
 2.24890E+03
 2.23140E+03
 2.24070E+03
 2.23010E+03
 2.23440E+03
 2.24780E+03
 2.23940E+03
 2.25020E+03
 2.23980E+03
 2.23070E+03
 2.23140E+03
 2.23110E+03
 2.23550E+03
 2.24860E+03
 2.23520E+03
 2.23430E+03
 2.23290E+03
 2.24170E+03
 2.23870E+03
 2.22800E+03
 2.21300E+03
 2.22060E+03
 2.25270E+03
 2.23410E+03
 2.26520E+03
 2.25010E+03
 2.27280E+03
 2.25350E+03
 2.26130E+03
 2.28060E+03
 2.25990E+03
 2.26660E+03
 2.27300E+03
 2.27600E+03
 2.27970E+03
 2.29540E+03
 2.27850E+03
 2.28520E+03
 2.29420E+03
 2.28380E+03
 2.28890E+03
 2.32930E+03
 2.32620E+03
 2.32870E+03
 2.34010E+03
 2.35740E+03
 2.38460E+03
 2.40070E+03
 2.43820E+03
 2.48550E+03
 2.50120E+03
 2.53060E+03
 2.59460E+03
 2.64760E+03
 2.64270E+03
 2.71850E+03
 2.75760E+03
 2.79270E+03
 2.85270E+03
 2.87280E+03
 2.94290E+03
 3.00850E+03
 3.04240E+03
 3.08930E+03
 3.14490E+03
 3.16600E+03
 3.22890E+03
 3.26360E+03
 3.28930E+03
 3.27400E+03
 3.31540E+03
 3.25060E+03
 3.27910E+03
 3.25230E+03
 3.24670E+03
 3.21720E+03
 3.19090E+03
 3.21020E+03
 3.23930E+03
 3.20750E+03
 3.23410E+03
 3.24420E+03
 3.22490E+03
 3.21200E+03
 3.21290E+03
 3.19280E+03
 3.21440E+03
 3.20870E+03
 3.19910E+03
 3.25160E+03
 3.19860E+03
 3.23040E+03
 3.22530E+03
 3.21870E+03
 3.24120E+03
 3.22160E+03
 3.24480E+03
 3.23720E+03
 3.23300E+03
 3.23210E+03
 3.24380E+03
 3.24380E+03
 3.26200E+03
 3.26630E+03
 3.27240E+03
 3.27610E+03
 3.28530E+03
 3.28580E+03
 3.28010E+03
 3.28100E+03
 3.27510E+03
 3.28900E+03
 3.29100E+03
 3.28920E+03
 3.28110E+03
 3.29130E+03
 3.29090E+03
 3.26540E+03
 3.29610E+03
 3.28180E+03
 3.28560E+03
 3.28720E+03
 3.28660E+03
 3.28330E+03
 3.25380E+03
 3.26910E+03
 3.25530E+03
 3.26230E+03
 3.24230E+03
 3.25580E+03
 3.22540E+03
 3.20140E+03
 3.18520E+03
 3.15830E+03
 3.10330E+03
 3.10600E+03
 3.05260E+03
 3.01440E+03
 2.93310E+03
 2.90320E+03
 2.84380E+03
 2.79380E+03
 2.76550E+03
 2.73080E+03
 2.67920E+03
 2.64030E+03
 2.60250E+03
 2.59140E+03
 2.57370E+03
 2.54260E+03
 2.50910E+03
 2.50560E+03
 2.47530E+03
 2.46050E+03
 2.44730E+03
 2.43530E+03
 2.40780E+03
 2.40840E+03
 2.41350E+03
 2.39940E+03
 2.38770E+03
 2.36530E+03
 2.36800E+03
 2.34810E+03
 2.33680E+03
 2.31580E+03
 2.32200E+03
 2.32770E+03
 2.32830E+03
 2.29560E+03
 2.30050E+03
 2.29900E+03
 2.28440E+03
 2.27560E+03
 2.27260E+03
 2.24900E+03
 2.25070E+03
 2.23530E+03
 2.24430E+03
 2.23450E+03
 2.23480E+03
 2.24510E+03
 2.20250E+03
 2.20820E+03
 2.20350E+03
 2.18800E+03
 2.17860E+03
 2.20090E+03
 2.14980E+03
 2.16760E+03
 2.16320E+03
 2.14500E+03
 2.13140E+03
 2.14670E+03
 2.13350E+03
 2.12470E+03
 2.12150E+03
 2.11410E+03
 2.11180E+03
 2.10140E+03
 2.09520E+03
 2.08990E+03
 2.08310E+03
 2.08310E+03
 2.08680E+03
 2.08650E+03
 2.08410E+03
 2.06820E+03
 2.06040E+03
 2.05900E+03
 2.04890E+03
 2.05080E+03
 2.04970E+03
 2.05180E+03
 2.04500E+03
 2.06030E+03
 2.05100E+03
 2.03840E+03
 2.04060E+03
 2.03530E+03
 2.04360E+03
 2.04280E+03
 2.03890E+03
 2.04960E+03
 2.04060E+03
 2.02110E+03
 2.03100E+03
 2.03710E+03
 2.03560E+03
 2.03770E+03
 2.03110E+03
 2.03990E+03
 2.02910E+03
 2.02460E+03
 2.02100E+03
 2.03180E+03
 2.01390E+03
 2.03290E+03
 2.03090E+03
 2.02290E+03
 2.02940E+03
 2.02620E+03
 2.01860E+03
 2.04070E+03
 2.02740E+03
 2.01600E+03
 2.01910E+03
 2.01340E+03
 2.03190E+03
 2.03880E+03
 2.01410E+03
 2.00630E+03
 2.01350E+03
 2.00600E+03
 2.00400E+03
 2.01140E+03
 2.02280E+03
 2.02490E+03
 2.02590E+03
 2.01760E+03
 2.02760E+03
 2.00560E+03
 2.00580E+03
 2.00720E+03
 2.01480E+03
 2.00190E+03
 2.00140E+03
 2.01770E+03
 2.02620E+03
 2.02930E+03
 1.99520E+03
 2.01390E+03
 2.02030E+03
 2.02100E+03
 2.02300E+03
 2.00610E+03
 2.01030E+03
 2.01690E+03
 2.01810E+03
 2.02640E+03
 2.01960E+03
 2.00160E+03
 2.01500E+03
 2.00680E+03
 2.01990E+03
 2.01940E+03
 2.00720E+03
 2.01350E+03
 1.99310E+03
 2.01090E+03
 2.00300E+03
 2.00430E+03
 1.99290E+03
 2.01090E+03
 2.00880E+03
 2.00200E+03
 2.00790E+03
 2.00630E+03
 1.99950E+03
 2.00750E+03
 1.99990E+03
 2.01650E+03
 2.00410E+03
 2.00500E+03
 1.99930E+03
 1.99880E+03
 2.00210E+03
 2.01080E+03
