 1.56650E+03
 1.56683E+03
 1.56605E+03
 1.56785E+03
 1.56683E+03
 1.56612E+03
 1.56708E+03
 1.56745E+03
 1.56642E+03
 1.56663E+03
 1.56703E+03
 1.56645E+03
 1.56730E+03
 1.56690E+03
 1.56623E+03
 1.56733E+03
 1.56653E+03
 1.56648E+03
 1.56723E+03
 1.56563E+03
 1.56620E+03
 1.56682E+03
 1.56740E+03
 1.56570E+03
 1.56693E+03
 1.56617E+03
 1.56632E+03
 1.56682E+03
 1.56680E+03
 1.56637E+03
 1.56615E+03
 1.56728E+03
 1.56648E+03
 1.56652E+03
 1.56732E+03
 1.56662E+03
 1.56653E+03
 1.56608E+03
 1.56730E+03
 1.56598E+03
 1.56687E+03
 1.56617E+03
 1.56610E+03
 1.56673E+03
 1.56720E+03
 1.56653E+03
 1.56698E+03
 1.56757E+03
 1.56633E+03
 1.56647E+03
 1.56778E+03
 1.56613E+03
 1.56800E+03
 1.56722E+03
 1.56777E+03
 1.56785E+03
 1.57522E+03
 1.62350E+03
 1.72057E+03
 1.70640E+03
 1.60708E+03
 1.57217E+03
 1.56788E+03
 1.56722E+03
 1.56750E+03
 1.56675E+03
 1.56737E+03
 1.56748E+03
 1.56663E+03
 1.56748E+03
 1.56728E+03
 1.56720E+03
 1.56745E+03
 1.56732E+03
 1.56757E+03
 1.56827E+03
 1.57040E+03
 1.57633E+03
 1.59357E+03
 1.63985E+03
 1.74060E+03
 1.91528E+03
 2.16358E+03
 2.52088E+03
 2.94988E+03
 3.33622E+03
 3.58647E+03
 3.66862E+03
 3.63757E+03
 3.60012E+03
 3.57775E+03
 3.56287E+03
 3.55123E+03
 3.47487E+03
 3.40090E+03
 3.32453E+03
 3.25892E+03
 3.20163E+03
 3.18452E+03
 3.15507E+03
 3.15085E+03
 3.12245E+03
 3.10242E+03
 3.07043E+03
 3.06888E+03
 3.04872E+03
 3.03370E+03
 3.02877E+03
 3.02395E+03
 3.02013E+03
 2.99737E+03
 2.95202E+03
 2.93683E+03
 2.89458E+03
 2.86838E+03
 2.85300E+03
 2.82867E+03
 2.80697E+03
 2.79522E+03
 2.79633E+03
 2.79418E+03
 2.77728E+03
 2.78115E+03
 2.77813E+03
 2.78652E+03
 2.78567E+03
 2.77775E+03
 2.77810E+03
 2.79348E+03
 2.80250E+03
 2.84217E+03
 2.85910E+03
 2.89730E+03
 2.95012E+03
 3.03600E+03
 3.16497E+03
 3.31205E+03
 3.39277E+03
 3.41810E+03
 3.42465E+03
 3.41607E+03
 3.43115E+03
 3.42903E+03
 3.44103E+03
 3.46158E+03
 3.47183E+03
 3.50015E+03
 3.52503E+03
 3.53800E+03
 3.56980E+03
 3.58717E+03
 3.62817E+03
 3.67497E+03
 3.72100E+03
 3.76380E+03
 3.82690E+03
 3.88258E+03
 3.96282E+03
 4.05590E+03
 4.18620E+03
 4.35452E+03
 4.61165E+03
 4.86617E+03
 4.84623E+03
 4.58282E+03
 4.28353E+03
 4.10702E+03
 3.95102E+03
 3.84392E+03
 3.76248E+03
 3.68855E+03
 3.61552E+03
 3.54133E+03
 3.50723E+03
 3.47767E+03
 3.42428E+03
 3.38677E+03
 3.35633E+03
 3.33847E+03
 3.30495E+03
 3.28122E+03
 3.26507E+03
 3.24192E+03
 3.22432E+03
 3.21390E+03
 3.22643E+03
 3.24565E+03
 3.27377E+03
 3.41517E+03
 3.77473E+03
 4.29068E+03
 4.22338E+03
 3.62275E+03
 3.25955E+03
 3.20428E+03
 3.31562E+03
 3.60272E+03
 4.11757E+03
 4.49758E+03
 4.25190E+03
 3.65158E+03
 3.28567E+03
 3.11987E+03
 3.04997E+03
 3.02570E+03
 3.02105E+03
 3.01913E+03
 3.05762E+03
 3.06448E+03
 3.06972E+03
 3.01472E+03
 2.92360E+03
 2.87093E+03
 2.80232E+03
 2.73872E+03
 2.66243E+03
 2.57238E+03
 2.47187E+03
 2.41237E+03
 2.39990E+03
 2.41947E+03
 2.42518E+03
 2.44872E+03
 2.48198E+03
 2.51110E+03
 2.57070E+03
 2.63097E+03
 2.73445E+03
 2.83900E+03
 2.97013E+03
 3.12307E+03
 3.35720E+03
 3.71377E+03
 4.30602E+03
 5.29023E+03
 7.13838E+03
 1.13450E+04
 2.29085E+04
 5.51165E+04
 6.44248E+04
 6.43804E+04
 6.43253E+04
 3.50340E+04
 1.68643E+04
 1.04920E+04
 7.72603E+03
 6.26833E+03
 5.34352E+03
 4.72352E+03
 4.26852E+03
 3.91025E+03
 3.61872E+03
 3.44057E+03
 3.26718E+03
 3.14877E+03
 3.04172E+03
 2.95065E+03
 2.87658E+03
 2.79773E+03
 2.71777E+03
 2.67605E+03
 2.64685E+03
 2.62437E+03
 2.62303E+03
 2.61495E+03
 2.60725E+03
 2.59623E+03
 2.59977E+03
 2.60013E+03
 2.60407E+03
 2.61542E+03
 2.67130E+03
 2.71242E+03
 2.77252E+03
 2.82888E+03
 2.84318E+03
 2.82658E+03
 2.80387E+03
 2.73918E+03
 2.66887E+03
 2.61773E+03
 2.58745E+03
 2.56447E+03
 2.54750E+03
 2.54102E+03
 2.53345E+03
 2.52145E+03
 2.51912E+03
 2.52527E+03
 2.53227E+03
 2.53412E+03
 2.56298E+03
 2.57310E+03
 2.59547E+03
 2.58863E+03
 2.58002E+03
 2.55397E+03
 2.52038E+03
 2.47967E+03
 2.44857E+03
 2.41768E+03
 2.39395E+03
 2.35960E+03
 2.32688E+03
 2.29032E+03
 2.27078E+03
 2.25470E+03
 2.23398E+03
 2.21725E+03
 2.20940E+03
 2.20463E+03
 2.20283E+03
 2.19303E+03
 2.19315E+03
 2.18272E+03
 2.18417E+03
 2.18090E+03
 2.18353E+03
 2.18427E+03
 2.19505E+03
 2.19333E+03
 2.20110E+03
 2.19778E+03
 2.21248E+03
 2.21185E+03
 2.23097E+03
 2.23223E+03
 2.23363E+03
 2.23048E+03
 2.22905E+03
 2.22687E+03
 2.23695E+03
 2.25502E+03
 2.25607E+03
 2.27667E+03
 2.28507E+03
 2.28765E+03
 2.29123E+03
 2.30290E+03
 2.30822E+03
 2.32140E+03
 2.33222E+03
 2.34448E+03
 2.37328E+03
 2.38007E+03
 2.39895E+03
 2.41882E+03
 2.42637E+03
 2.43740E+03
 2.45368E+03
 2.45262E+03
 2.45377E+03
 2.43893E+03
 2.41765E+03
 2.40805E+03
 2.38257E+03
 2.36303E+03
 2.36072E+03
 2.34173E+03
 2.33872E+03
 2.34175E+03
 2.34138E+03
 2.33462E+03
 2.34367E+03
 2.34260E+03
 2.34043E+03
 2.35395E+03
 2.34992E+03
 2.35622E+03
 2.36102E+03
 2.36762E+03
 2.36705E+03
 2.37302E+03
 2.36977E+03
 2.38147E+03
 2.38010E+03
 2.39433E+03
 2.38837E+03
 2.39697E+03
 2.39438E+03
 2.39162E+03
 2.39720E+03
 2.40643E+03
 2.41178E+03
 2.42355E+03
 2.43970E+03
 2.47440E+03
 2.51460E+03
 2.61888E+03
 2.81732E+03
 3.14360E+03
 3.61265E+03
 4.13568E+03
 4.70445E+03
 5.28307E+03
 5.64640E+03
 5.68460E+03
 5.61727E+03
 5.59227E+03
 5.59248E+03
 5.57617E+03
 5.61440E+03
 5.64032E+03
 5.64978E+03
 5.69288E+03
 5.73185E+03
 5.74998E+03
 5.77250E+03
 5.78233E+03
 5.76295E+03
 5.72800E+03
 5.58417E+03
 5.32253E+03
 4.86938E+03
 4.34947E+03
 3.88603E+03
 3.53913E+03
 3.31667E+03
 3.12923E+03
 3.00458E+03
 2.91083E+03
 2.82362E+03
 2.73647E+03
 2.64472E+03
 2.58387E+03
 2.50450E+03
 2.42995E+03
 2.36932E+03
 2.30472E+03
 2.23728E+03
 2.16653E+03
 2.09205E+03
 2.03693E+03
 1.98907E+03
 1.95475E+03
 1.93602E+03
 1.91733E+03
 1.90818E+03
 1.89845E+03
 1.89178E+03
 1.89227E+03
 1.88523E+03
 1.88463E+03
 1.88000E+03
 1.88517E+03
 1.87590E+03
 1.88138E+03
 1.87497E+03
 1.87793E+03
 1.87622E+03
 1.87412E+03
 1.87352E+03
 1.87532E+03
 1.87518E+03
 1.87162E+03
 1.86975E+03
 1.87672E+03
 1.87358E+03
 1.87063E+03
 1.86987E+03
 1.86930E+03
 1.86717E+03
 1.87415E+03
 1.87072E+03
 1.86722E+03
 1.86498E+03
 1.86680E+03
 1.86905E+03
 1.85995E+03
 1.85452E+03
 1.86115E+03
 1.85167E+03
 1.85683E+03
 1.85770E+03
 1.85073E+03
 1.84560E+03
 1.84873E+03
 1.84860E+03
 1.84818E+03
 1.84648E+03
 1.84708E+03
 1.84412E+03
 1.84167E+03
 1.84375E+03
 1.84313E+03
 1.84460E+03
 1.84165E+03
 1.84432E+03
 1.84182E+03
 1.84252E+03
 1.84345E+03
 1.84465E+03
 1.84583E+03
 1.84297E+03
 1.84002E+03
 1.84600E+03
 1.84752E+03
 1.84427E+03
 1.84525E+03
 1.84752E+03
 1.84810E+03
 1.85020E+03
 1.85023E+03
 1.85407E+03
 1.84680E+03
 1.85437E+03
 1.85340E+03
 1.85627E+03
 1.85933E+03
 1.86118E+03
 1.86077E+03
 1.86237E+03
 1.85778E+03
 1.86207E+03
 1.86425E+03
 1.85615E+03
 1.86603E+03
 1.86922E+03
 1.86517E+03
 1.86638E+03
 1.86817E+03
 1.86577E+03
 1.87032E+03
 1.87503E+03
 1.87642E+03
 1.87288E+03
 1.87542E+03
 1.87178E+03
 1.87843E+03
 1.88233E+03
 1.87730E+03
 1.87425E+03
 1.87908E+03
 1.88023E+03
 1.87750E+03
 1.88635E+03
 1.88432E+03
 1.88197E+03
 1.88725E+03
 1.88773E+03
 1.88867E+03
 1.88888E+03
 1.89115E+03
 1.88930E+03
 1.89313E+03
 1.89585E+03
 1.89573E+03
 1.89970E+03
 1.89735E+03
 1.89927E+03
 1.89920E+03
 1.89942E+03
 1.90045E+03
 1.90518E+03
 1.90553E+03
 1.90570E+03
 1.90833E+03
 1.90325E+03
 1.90443E+03
 1.90555E+03
 1.90657E+03
 1.90607E+03
 1.90488E+03
 1.90860E+03
 1.90017E+03
 1.91332E+03
 1.90672E+03
 1.90380E+03
 1.90240E+03
 1.90155E+03
 1.90053E+03
 1.89720E+03
 1.89632E+03
 1.89485E+03
 1.90060E+03
 1.89792E+03
 1.89588E+03
 1.89467E+03
 1.90027E+03
 1.89570E+03
 1.89752E+03
 1.90212E+03
 1.89723E+03
 1.90347E+03
 1.90023E+03
 1.90132E+03
 1.90365E+03
 1.91040E+03
 1.90965E+03
 1.91495E+03
 1.92122E+03
 1.91673E+03
 1.92207E+03
 1.91610E+03
 1.91592E+03
 1.91492E+03
 1.91923E+03
 1.91672E+03
 1.91158E+03
 1.91348E+03
 1.91133E+03
 1.90467E+03
 1.90712E+03
 1.90477E+03
 1.90253E+03
 1.90290E+03
 1.90035E+03
 1.90285E+03
 1.90438E+03
 1.90037E+03
 1.90038E+03
 1.90378E+03
 1.89993E+03
 1.90333E+03
 1.89810E+03
 1.90212E+03
 1.90208E+03
 1.89997E+03
 1.90120E+03
 1.90262E+03
 1.89660E+03
 1.89590E+03
 1.90672E+03
 1.89937E+03
 1.90658E+03
 1.90950E+03
 1.90598E+03
 1.91107E+03
 1.90155E+03
 1.91002E+03
 1.91030E+03
 1.91080E+03
 1.92113E+03
 1.91397E+03
 1.91882E+03
 1.91967E+03
 1.92692E+03
 1.92807E+03
 1.93328E+03
 1.94012E+03
 1.94005E+03
 1.94635E+03
 1.94225E+03
 1.95072E+03
 1.95045E+03
 1.95790E+03
 1.95723E+03
 1.95915E+03
 1.96128E+03
 1.96692E+03
 1.96392E+03
 1.97420E+03
 1.97040E+03
 1.96868E+03
 1.97330E+03
 1.97033E+03
 1.97587E+03
 1.97558E+03
 1.97442E+03
 1.97140E+03
 1.96115E+03
 1.96630E+03
 1.96263E+03
 1.95637E+03
 1.95932E+03
 1.94293E+03
 1.94352E+03
 1.94540E+03
 1.94043E+03
 1.93695E+03
 1.94055E+03
 1.93445E+03
 1.92788E+03
 1.92732E+03
 1.93127E+03
 1.91998E+03
 1.92402E+03
 1.92480E+03
 1.92360E+03
 1.91955E+03
 1.92663E+03
 1.91910E+03
 1.91825E+03
 1.91762E+03
 1.91815E+03
 1.92420E+03
 1.91748E+03
 1.91613E+03
 1.92437E+03
 1.92257E+03
 1.92520E+03
 1.91973E+03
 1.91652E+03
 1.92183E+03
 1.92325E+03
 1.91817E+03
 1.92123E+03
 1.92593E+03
 1.92175E+03
 1.92460E+03
 1.93000E+03
 1.92965E+03
 1.92708E+03
 1.92600E+03
 1.92992E+03
 1.93557E+03
 1.93365E+03
 1.93200E+03
 1.92952E+03
 1.93548E+03
 1.93500E+03
 1.93205E+03
 1.93723E+03
 1.93648E+03
 1.93407E+03
 1.93963E+03
 1.93650E+03
 1.93990E+03
 1.93945E+03
 1.93718E+03
 1.94258E+03
 1.95237E+03
 1.94063E+03
 1.93948E+03
 1.94312E+03
 1.94347E+03
 1.93623E+03
 1.94350E+03
 1.95055E+03
 1.94652E+03
 1.94657E+03
 1.94878E+03
 1.94757E+03
 1.95072E+03
 1.94890E+03
 1.95867E+03
 1.95347E+03
 1.95995E+03
 1.95562E+03
 1.95825E+03
 1.95375E+03
 1.95948E+03
 1.96605E+03
 1.96142E+03
 1.96888E+03
 1.96158E+03
 1.96408E+03
 1.96135E+03
 1.97078E+03
 1.97190E+03
 1.97197E+03
 1.96873E+03
 1.97410E+03
 1.97733E+03
 1.97310E+03
 1.97338E+03
 1.97722E+03
 1.98107E+03
 1.97095E+03
 1.97852E+03
 1.98162E+03
 1.98725E+03
 1.97580E+03
 1.98920E+03
 1.98563E+03
 1.98673E+03
 1.98682E+03
 1.98492E+03
 1.98963E+03
 1.99067E+03
 1.98948E+03
 1.98982E+03
 1.99493E+03
 1.99363E+03
 1.99375E+03
 1.99670E+03
 1.99643E+03
 1.99855E+03
 1.99905E+03
 2.00110E+03
 1.99793E+03
 2.00297E+03
 1.99977E+03
 2.00472E+03
 2.00060E+03
 2.01117E+03
 2.01077E+03
 2.01560E+03
 2.01255E+03
 2.00993E+03
 2.01468E+03
 2.01600E+03
 2.02052E+03
 2.01582E+03
 2.02492E+03
 2.02452E+03
 2.02322E+03
 2.02965E+03
 2.02803E+03
 2.02922E+03
 2.02793E+03
 2.03425E+03
 2.03763E+03
 2.03277E+03
 2.03082E+03
 2.03630E+03
 2.03722E+03
 2.03622E+03
 2.03787E+03
 2.03658E+03
 2.04257E+03
 2.04145E+03
 2.04780E+03
 2.04613E+03
 2.03737E+03
 2.04800E+03
 2.03912E+03
 2.04628E+03
 2.04733E+03
 2.04123E+03
 2.04682E+03
 2.04423E+03
 2.04852E+03
 2.04770E+03
 2.04638E+03
 2.05270E+03
 2.05025E+03
 2.05083E+03
 2.05712E+03
 2.06023E+03
 2.06022E+03
 2.05697E+03
 2.05373E+03
 2.05750E+03
 2.06098E+03
 2.06938E+03
 2.06605E+03
 2.06403E+03
 2.06827E+03
 2.07352E+03
 2.06977E+03
 2.07515E+03
 2.08005E+03
 2.07657E+03
 2.08370E+03
 2.08040E+03
 2.08873E+03
 2.08488E+03
 2.08612E+03
 2.08128E+03
 2.08513E+03
 2.08372E+03
 2.08852E+03
 2.09067E+03
 2.09172E+03
 2.09203E+03
 2.09300E+03
 2.09493E+03
 2.09757E+03
 2.09573E+03
 2.10192E+03
 2.10190E+03
 2.10108E+03
 2.10005E+03
 2.10017E+03
 2.10362E+03
 2.10108E+03
 2.10243E+03
 2.10177E+03
 2.10832E+03
 2.10920E+03
 2.11322E+03
 2.11297E+03
 2.11642E+03
 2.11065E+03
 2.11012E+03
 2.11460E+03
 2.11425E+03
 2.11813E+03
 2.12027E+03
 2.11987E+03
 2.12773E+03
 2.12218E+03
 2.12068E+03
 2.12718E+03
 2.12608E+03
 2.13097E+03
 2.13745E+03
 2.13530E+03
 2.13897E+03
 2.14115E+03
 2.14798E+03
 2.15103E+03
 2.14963E+03
 2.14892E+03
 2.14867E+03
 2.14625E+03
 2.15863E+03
 2.15800E+03
 2.15868E+03
 2.15713E+03
 2.15883E+03
 2.16390E+03
 2.16507E+03
 2.16200E+03
 2.16398E+03
 2.17197E+03
 2.17292E+03
 2.17047E+03
 2.16935E+03
 2.17583E+03
 2.17730E+03
 2.18025E+03
 2.16895E+03
 2.18243E+03
 2.18202E+03
 2.18223E+03
 2.17703E+03
 2.18215E+03
 2.17965E+03
 2.19057E+03
 2.18923E+03
 2.18252E+03
 2.18672E+03
 2.18933E+03
 2.19830E+03
 2.18882E+03
 2.18967E+03
 2.18787E+03
 2.19282E+03
 2.19917E+03
 2.20127E+03
 2.19895E+03
 2.19953E+03
 2.19963E+03
 2.20425E+03
 2.20365E+03
 2.21002E+03
 2.20998E+03
 2.21308E+03
 2.20897E+03
 2.21185E+03
 2.21763E+03
 2.22638E+03
 2.22295E+03
 2.22743E+03
 2.22738E+03
 2.22855E+03
 2.23975E+03
 2.23080E+03
 2.23390E+03
 2.23685E+03
 2.23373E+03
 2.22845E+03
 2.23587E+03
 2.23723E+03
 2.23898E+03
 2.24170E+03
 2.25293E+03
 2.24628E+03
 2.25127E+03
 2.25253E+03
 2.25758E+03
 2.25743E+03
 2.25737E+03
 2.25863E+03
 2.25745E+03
 2.26977E+03
 2.26135E+03
 2.26410E+03
 2.26460E+03
 2.27260E+03
 2.26507E+03
 2.26910E+03
 2.27470E+03
 2.27152E+03
 2.27940E+03
 2.27263E+03
 2.27885E+03
 2.27727E+03
 2.28190E+03
 2.28832E+03
 2.28707E+03
 2.29138E+03
 2.28995E+03
 2.29210E+03
 2.29505E+03
 2.29658E+03
 2.29637E+03
 2.30170E+03
 2.30038E+03
 2.30187E+03
 2.30307E+03
 2.30142E+03
 2.30518E+03
 2.30882E+03
 2.31912E+03
 2.30958E+03
 2.31883E+03
 2.31733E+03
 2.32507E+03
 2.32643E+03
 2.32355E+03
 2.32548E+03
 2.32493E+03
 2.33288E+03
 2.32797E+03
 2.33933E+03
 2.33145E+03
 2.33695E+03
 2.33615E+03
 2.34120E+03
 2.33408E+03
 2.34567E+03
 2.34082E+03
 2.34500E+03
 2.35182E+03
 2.35408E+03
 2.34548E+03
 2.35408E+03
 2.35210E+03
 2.36413E+03
 2.35375E+03
 2.35797E+03
 2.36120E+03
 2.36078E+03
 2.37005E+03
 2.36635E+03
 2.36710E+03
 2.37417E+03
 2.36597E+03
 2.37320E+03
 2.37805E+03
 2.37832E+03
 2.37742E+03
 2.39017E+03
 2.37508E+03
 2.38817E+03
 2.38985E+03
 2.39228E+03
 2.39728E+03
 2.41200E+03
 2.39418E+03
 2.39763E+03
 2.40697E+03
 2.40867E+03
 2.40677E+03
 2.40545E+03
 2.41380E+03
 2.40858E+03
 2.42185E+03
 2.41632E+03
 2.41365E+03
 2.42053E+03
 2.42927E+03
 2.43695E+03
 2.43440E+03
 2.43585E+03
 2.42265E+03
 2.43302E+03
 2.43393E+03
 2.43940E+03
 2.43963E+03
 2.44313E+03
 2.44295E+03
 2.44655E+03
 2.45397E+03
 2.44677E+03
 2.45060E+03
 2.44448E+03
 2.45348E+03
 2.46270E+03
 2.45958E+03
 2.46403E+03
 2.47235E+03
 2.46730E+03
 2.47100E+03
 2.46558E+03
 2.47558E+03
 2.48143E+03
 2.48205E+03
 2.48048E+03
 2.48715E+03
 2.48558E+03
 2.48530E+03
 2.48698E+03
 2.48812E+03
 2.49068E+03
 2.49912E+03
 2.48885E+03
 2.49535E+03
 2.50393E+03
 2.50927E+03
 2.51650E+03
 2.51432E+03
 2.51252E+03
 2.52057E+03
 2.51795E+03
 2.50933E+03
 2.52712E+03
 2.52273E+03
 2.52587E+03
 2.52135E+03
 2.52220E+03
 2.52180E+03
 2.52682E+03
 2.53862E+03
 2.53557E+03
 2.53053E+03
 2.53373E+03
 2.53727E+03
 2.53800E+03
 2.54258E+03
 2.54917E+03
 2.54802E+03
 2.54425E+03
 2.54760E+03
 2.55213E+03
 2.56020E+03
 2.55785E+03
 2.56395E+03
 2.56748E+03
 2.57022E+03
 2.56577E+03
 2.57557E+03
 2.57350E+03
 2.57153E+03
 2.57597E+03
 2.57248E+03
 2.58307E+03
 2.58290E+03
 2.58817E+03
 2.58447E+03
 2.58962E+03
 2.59730E+03
 2.59468E+03
 2.59417E+03
 2.60440E+03
 2.60408E+03
 2.59857E+03
 2.60628E+03
 2.60388E+03
 2.61003E+03
 2.60957E+03
 2.60808E+03
 2.61597E+03
 2.61477E+03
 2.61865E+03
 2.61285E+03
 2.61873E+03
 2.62548E+03
 2.62655E+03
 2.62350E+03
 2.62487E+03
 2.62497E+03
 2.61988E+03
 2.62433E+03
 2.62443E+03
 2.62868E+03
 2.63560E+03
 2.63982E+03
 2.63398E+03
 2.63855E+03
 2.64450E+03
 2.63870E+03
 2.64623E+03
 2.64273E+03
 2.65512E+03
 2.65245E+03
 2.64733E+03
 2.65668E+03
 2.65837E+03
 2.66150E+03
 2.66327E+03
 2.66182E+03
 2.65910E+03
 2.66627E+03
 2.66108E+03
 2.67783E+03
 2.67858E+03
 2.67335E+03
 2.67687E+03
 2.68000E+03
 2.68415E+03
 2.67512E+03
 2.67973E+03
 2.68982E+03
 2.68590E+03
 2.69388E+03
 2.68168E+03
 2.70052E+03
 2.69537E+03
 2.69167E+03
 2.68670E+03
 2.70365E+03
 2.69857E+03
 2.70342E+03
 2.70470E+03
 2.70298E+03
 2.70342E+03
 2.69933E+03
 2.71278E+03
 2.70375E+03
 2.70763E+03
 2.71752E+03
 2.71925E+03
 2.71488E+03
 2.72317E+03
 2.71640E+03
 2.71717E+03
 2.71853E+03
 2.71990E+03
 2.72107E+03
 2.72527E+03
 2.73110E+03
 2.71997E+03
 2.73572E+03
 2.73787E+03
 2.73472E+03
 2.72517E+03
 2.73807E+03
 2.74630E+03
 2.74168E+03
 2.74172E+03
 2.75530E+03
 2.74990E+03
 2.75660E+03
 2.74773E+03
 2.73637E+03
 2.74948E+03
 2.76008E+03
 2.75875E+03
 2.75810E+03
 2.77228E+03
 2.76303E+03
 2.76565E+03
 2.76125E+03
 2.77610E+03
 2.76958E+03
 2.77807E+03
 2.78275E+03
 2.77453E+03
 2.78557E+03
 2.77353E+03
 2.77513E+03
 2.78147E+03
 2.78065E+03
 2.78153E+03
 2.79135E+03
 2.78203E+03
 2.77972E+03
 2.79418E+03
 2.78650E+03
 2.78212E+03
 2.78935E+03
 2.78327E+03
 2.79230E+03
 2.79080E+03
 2.80010E+03
 2.79282E+03
 2.80138E+03
 2.80082E+03
 2.79732E+03
 2.79973E+03
 2.79518E+03
 2.80582E+03
 2.80543E+03
 2.80012E+03
 2.80268E+03
 2.80948E+03
 2.80687E+03
 2.80358E+03
 2.82333E+03
 2.81428E+03
 2.80610E+03
 2.81798E+03
 2.81557E+03
 2.81902E+03
 2.81352E+03
 2.81888E+03
 2.80452E+03
 2.82137E+03
 2.82980E+03
 2.82487E+03
 2.83300E+03
 2.83515E+03
 2.84208E+03
 2.82550E+03
 2.83082E+03
 2.84102E+03
 2.84288E+03
 2.83623E+03
 2.83477E+03
 2.83908E+03
 2.82902E+03
 2.84498E+03
 2.84057E+03
 2.84442E+03
 2.83638E+03
 2.84402E+03
 2.83815E+03
 2.85205E+03
 2.85293E+03
 2.84913E+03
 2.85052E+03
 2.85353E+03
 2.85965E+03
 2.84238E+03
 2.86230E+03
 2.85692E+03
 2.86985E+03
 2.86115E+03
 2.85628E+03
 2.85110E+03
 2.85883E+03
 2.86108E+03
 2.86995E+03
 2.87517E+03
 2.86755E+03
 2.86515E+03
 2.87472E+03
 2.88520E+03
 2.87615E+03
 2.88578E+03
 2.88160E+03
 2.89422E+03
 2.89072E+03
 2.88468E+03
 2.88847E+03
 2.88500E+03
 2.89408E+03
 2.89740E+03
 2.89583E+03
 2.89878E+03
 2.89473E+03
 2.90138E+03
 2.89407E+03
 2.89815E+03
 2.90243E+03
 2.90507E+03
 2.90097E+03
 2.89732E+03
 2.89840E+03
 2.90552E+03
 2.91737E+03
 2.91558E+03
 2.90470E+03
 2.90525E+03
 2.91365E+03
 2.90867E+03
 2.90905E+03
 2.91950E+03
 2.91660E+03
 2.93212E+03
 2.91448E+03
 2.92342E+03
 2.92937E+03
 2.93087E+03
 2.92953E+03
 2.92275E+03
 2.92558E+03
 2.93178E+03
 2.93208E+03
 2.92810E+03
 2.93387E+03
 2.92897E+03
 2.93012E+03
 2.93390E+03
 2.94058E+03
 2.94807E+03
 2.94780E+03
 2.94162E+03
 2.94202E+03
 2.93620E+03
 2.94785E+03
 2.95195E+03
 2.95048E+03
 2.94722E+03
 2.94105E+03
 2.94885E+03
 2.95707E+03
 2.95205E+03
 2.94652E+03
 2.94317E+03
 2.95130E+03
 2.95840E+03
 2.95762E+03
 2.95348E+03
 2.96587E+03
 2.94545E+03
 2.94820E+03
 2.95953E+03
 2.95355E+03
 2.96593E+03
 2.95145E+03
 2.95648E+03
 2.95697E+03
 2.96507E+03
 2.96250E+03
 2.95780E+03
 2.96283E+03
 2.96553E+03
 2.95833E+03
 2.96620E+03
 2.97175E+03
 2.97382E+03
 2.97727E+03
 2.97500E+03
 2.97493E+03
 2.97510E+03
 2.98812E+03
 2.97765E+03
 2.98347E+03
 2.98495E+03
 2.98643E+03
 2.99203E+03
 2.99140E+03
 3.00332E+03
 2.99798E+03
 3.00168E+03
 2.99415E+03
 3.00718E+03
 3.00427E+03
 2.99540E+03
 3.00522E+03
 3.00235E+03
 3.00778E+03
 3.00840E+03
 3.00007E+03
 3.00617E+03
 3.00878E+03
 3.00705E+03
 3.00798E+03
 3.00860E+03
 3.00723E+03
 3.00852E+03
 3.00828E+03
 3.01898E+03
 3.01193E+03
 3.00517E+03
 3.02115E+03
 3.01998E+03
 3.02252E+03
 3.01993E+03
 3.02747E+03
 3.02512E+03
 3.02347E+03
 3.03182E+03
 3.01982E+03
 3.02750E+03
 3.02883E+03
 3.03420E+03
 3.03270E+03
 3.03602E+03
 3.02730E+03
 3.03333E+03
 3.04008E+03
 3.04038E+03
 3.03435E+03
 3.04475E+03
 3.04228E+03
 3.05420E+03
 3.05107E+03
 3.05762E+03
 3.05720E+03
 3.05048E+03
 3.06372E+03
 3.05827E+03
 3.05895E+03
 3.06517E+03
 3.06410E+03
 3.06048E+03
 3.06343E+03
 3.07490E+03
 3.07508E+03
 3.07862E+03
 3.07227E+03
 3.08645E+03
 3.08160E+03
 3.07422E+03
 3.07645E+03
 3.07233E+03
 3.07170E+03
 3.07335E+03
 3.06800E+03
 3.08352E+03
 3.07618E+03
 3.07082E+03
 3.07987E+03
 3.07570E+03
 3.08935E+03
 3.07805E+03
 3.07565E+03
 3.08173E+03
 3.07483E+03
 3.07723E+03
 3.07398E+03
 3.08090E+03
 3.07368E+03
 3.08385E+03
 3.09110E+03
 3.09182E+03
 3.09513E+03
 3.08660E+03
 3.10285E+03
 3.09593E+03
 3.10203E+03
 3.10215E+03
 3.10473E+03
 3.10363E+03
 3.10700E+03
 3.10993E+03
 3.11392E+03
 3.11182E+03
 3.12332E+03
 3.11363E+03
 3.13127E+03
 3.12762E+03
 3.11935E+03
 3.13412E+03
 3.13198E+03
 3.14050E+03
 3.13825E+03
 3.14362E+03
 3.14683E+03
 3.14830E+03
 3.14217E+03
 3.15162E+03
 3.14925E+03
 3.15275E+03
 3.16235E+03
 3.15540E+03
 3.16452E+03
 3.15863E+03
 3.16763E+03
 3.15500E+03
 3.15813E+03
 3.17583E+03
 3.17495E+03
 3.17260E+03
 3.16055E+03
 3.16330E+03
 3.17163E+03
 3.16342E+03
 3.16955E+03
 3.17605E+03
 3.17550E+03
 3.17365E+03
 3.17863E+03
 3.17255E+03
 3.17518E+03
 3.18455E+03
 3.17708E+03
 3.18822E+03
 3.19003E+03
 3.19593E+03
 3.19787E+03
 3.18633E+03
 3.20237E+03
 3.20022E+03
 3.19933E+03
 3.20698E+03
 3.20930E+03
 3.20427E+03
 3.20740E+03
 3.20625E+03
 3.21375E+03
 3.21495E+03
 3.23040E+03
 3.24625E+03
 3.23792E+03
 3.23645E+03
 3.22883E+03
 3.23270E+03
 3.23890E+03
 3.23838E+03
 3.25358E+03
 3.24143E+03
 3.25558E+03
 3.24837E+03
 3.25308E+03
 3.27190E+03
 3.25600E+03
 3.27360E+03
 3.26340E+03
 3.26555E+03
 3.27383E+03
 3.25808E+03
 3.26788E+03
 3.26745E+03
 3.27233E+03
 3.27202E+03
 3.27370E+03
 3.27537E+03
 3.27553E+03
 3.28580E+03
 3.29048E+03
 3.28075E+03
 3.28677E+03
 3.29435E+03
