 1.57890E+03
 1.57870E+03
 1.58110E+03
 1.57950E+03
 1.58120E+03
 1.58080E+03
 1.58060E+03
 1.57830E+03
 1.57900E+03
 1.58180E+03
 1.58070E+03
 1.58140E+03
 1.58200E+03
 1.58210E+03
 1.57800E+03
 1.57950E+03
 1.57890E+03
 1.57900E+03
 1.58180E+03
 1.57910E+03
 1.58220E+03
 1.58100E+03
 1.57990E+03
 1.57940E+03
 1.58060E+03
 1.58090E+03
 1.58310E+03
 1.58090E+03
 1.58170E+03
 1.57970E+03
 1.58040E+03
 1.57800E+03
 1.58010E+03
 1.57830E+03
 1.57990E+03
 1.57900E+03
 1.58030E+03
 1.57930E+03
 1.58100E+03
 1.58160E+03
 1.58010E+03
 1.58130E+03
 1.58040E+03
 1.58000E+03
 1.58300E+03
 1.58170E+03
 1.58120E+03
 1.57980E+03
 1.58360E+03
 1.58100E+03
 1.57990E+03
 1.58250E+03
 1.58000E+03
 1.58180E+03
 1.58160E+03
 1.58000E+03
 1.58090E+03
 1.58080E+03
 1.58000E+03
 1.58120E+03
 1.58180E+03
 1.58090E+03
 1.57960E+03
 1.58170E+03
 1.58030E+03
 1.58260E+03
 1.58060E+03
 1.57930E+03
 1.58080E+03
 1.58220E+03
 1.58110E+03
 1.57950E+03
 1.57980E+03
 1.58120E+03
 1.58290E+03
 1.58150E+03
 1.60530E+03
 1.67290E+03
 1.75930E+03
 1.72870E+03
 1.63360E+03
 1.58990E+03
 1.58390E+03
 1.58110E+03
 1.58270E+03
 1.58120E+03
 1.58220E+03
 1.58240E+03
 1.58050E+03
 1.58050E+03
 1.58230E+03
 1.58040E+03
 1.58190E+03
 1.58180E+03
 1.57940E+03
 1.58010E+03
 1.58330E+03
 1.58120E+03
 1.58140E+03
 1.58060E+03
 1.58180E+03
 1.58160E+03
 1.58130E+03
 1.58210E+03
 1.58070E+03
 1.58180E+03
 1.58120E+03
 1.58240E+03
 1.58150E+03
 1.57980E+03
 1.58320E+03
 1.58010E+03
 1.57820E+03
 1.58040E+03
 1.58160E+03
 1.58090E+03
 1.58270E+03
 1.57890E+03
 1.58190E+03
 1.58070E+03
 1.57960E+03
 1.58210E+03
 1.57980E+03
 1.58070E+03
 1.58120E+03
 1.57850E+03
 1.58060E+03
 1.58160E+03
 1.57960E+03
 1.57790E+03
 1.58200E+03
 1.58000E+03
 1.58200E+03
 1.58160E+03
 1.58010E+03
 1.58170E+03
 1.58140E+03
 1.57990E+03
 1.58120E+03
 1.58220E+03
 1.58110E+03
 1.58120E+03
 1.57970E+03
 1.58100E+03
 1.57900E+03
 1.58170E+03
 1.58020E+03
 1.58060E+03
 1.58270E+03
 1.58480E+03
 1.58630E+03
 1.58850E+03
 1.59310E+03
 1.59880E+03
 1.60200E+03
 1.61030E+03
 1.62430E+03
 1.63130E+03
 1.65110E+03
 1.66910E+03
 1.69030E+03
 1.71270E+03
 1.74690E+03
 1.77480E+03
 1.80530E+03
 1.85590E+03
 1.89660E+03
 1.96280E+03
 2.00360E+03
 2.05980E+03
 2.14970E+03
 2.21900E+03
 2.29050E+03
 2.39540E+03
 2.48970E+03
 2.55970E+03
 2.64120E+03
 2.69590E+03
 2.78180E+03
 2.81790E+03
 2.88740E+03
 2.93210E+03
 2.93590E+03
 2.93810E+03
 2.94060E+03
 2.99470E+03
 2.96300E+03
 2.97600E+03
 2.96680E+03
 2.98430E+03
 3.02490E+03
 3.00660E+03
 3.01100E+03
 3.02290E+03
 3.01710E+03
 3.04910E+03
 3.02590E+03
 3.02670E+03
 3.04670E+03
 3.04380E+03
 3.06060E+03
 3.03700E+03
 3.04910E+03
 3.06840E+03
 3.06280E+03
 3.06100E+03
 3.05310E+03
 3.05920E+03
 3.05040E+03
 3.04040E+03
 2.98350E+03
 3.03680E+03
 3.02720E+03
 3.00010E+03
 3.00720E+03
 3.00890E+03
 2.99470E+03
 2.98600E+03
 2.95690E+03
 2.95300E+03
 2.94900E+03
 2.93660E+03
 2.94840E+03
 2.95740E+03
 2.96130E+03
 2.94490E+03
 2.96820E+03
 2.92930E+03
 2.93300E+03
 2.93820E+03
 2.94120E+03
 2.93130E+03
 2.94820E+03
 2.94260E+03
 2.93410E+03
 2.94660E+03
 2.95900E+03
 2.91300E+03
 2.91800E+03
 2.95280E+03
 2.92640E+03
 2.90340E+03
 2.91310E+03
 2.91570E+03
 2.92020E+03
 2.94050E+03
 2.89610E+03
 2.87930E+03
 2.90270E+03
 2.91080E+03
 2.90760E+03
 2.90660E+03
 2.88810E+03
 2.87290E+03
 2.88990E+03
 2.88270E+03
 2.86600E+03
 2.89010E+03
 2.88410E+03
 2.89150E+03
 2.88570E+03
 2.87610E+03
 2.85920E+03
 2.87040E+03
 2.86580E+03
 2.85890E+03
 2.84780E+03
 2.84190E+03
 2.84420E+03
 2.87950E+03
 2.84920E+03
 2.83870E+03
 2.84050E+03
 2.84990E+03
 2.83070E+03
 2.82220E+03
 2.82100E+03
 2.81880E+03
 2.81940E+03
 2.81450E+03
 2.81890E+03
 2.77530E+03
 2.81260E+03
 2.79960E+03
 2.80980E+03
 2.81610E+03
 2.79110E+03
 2.80130E+03
 2.80080E+03
 2.79020E+03
 2.77850E+03
 2.78310E+03
 2.78720E+03
 2.77020E+03
 2.77020E+03
 2.78350E+03
 2.77030E+03
 2.77150E+03
 2.75550E+03
 2.73680E+03
 2.76800E+03
 2.75940E+03
 2.77970E+03
 2.74410E+03
 2.75740E+03
 2.75750E+03
 2.74670E+03
 2.74410E+03
 2.75020E+03
 2.75520E+03
 2.77950E+03
 2.74270E+03
 2.75620E+03
 2.77250E+03
 2.73890E+03
 2.76160E+03
 2.73330E+03
 2.75670E+03
 2.74190E+03
 2.75460E+03
 2.74510E+03
 2.73650E+03
 2.73030E+03
 2.73090E+03
 2.74190E+03
 2.72520E+03
 2.70780E+03
 2.70220E+03
 2.73390E+03
 2.70970E+03
 2.73420E+03
 2.71730E+03
 2.72780E+03
 2.71520E+03
 2.72680E+03
 2.71600E+03
 2.71260E+03
 2.70530E+03
 2.72340E+03
 2.72020E+03
 2.70680E+03
 2.71890E+03
 2.72330E+03
 2.72920E+03
 2.72170E+03
 2.73960E+03
 2.73930E+03
 2.73990E+03
 2.72750E+03
 2.74690E+03
 2.74690E+03
 2.74540E+03
 2.75520E+03
 2.73760E+03
 2.75590E+03
 2.73900E+03
 2.76820E+03
 2.77700E+03
 2.77430E+03
 2.77000E+03
 2.76630E+03
 2.78580E+03
 2.79970E+03
 2.80770E+03
 2.82820E+03
 2.85550E+03
 2.87730E+03
 2.88730E+03
 2.90110E+03
 2.90040E+03
 2.89280E+03
 2.90500E+03
 2.86380E+03
 2.87840E+03
 2.87200E+03
 2.87760E+03
 2.84800E+03
 2.83650E+03
 2.86270E+03
 2.84730E+03
 2.84320E+03
 2.81090E+03
 2.82660E+03
 2.81450E+03
 2.82270E+03
 2.80240E+03
 2.80230E+03
 2.79380E+03
 2.79680E+03
 2.80140E+03
 2.81190E+03
 2.78740E+03
 2.81120E+03
 2.80950E+03
 2.80260E+03
 2.79480E+03
 2.79560E+03
 2.82000E+03
 2.80220E+03
 2.78080E+03
 2.78970E+03
 2.79880E+03
 2.77190E+03
 2.79310E+03
 2.78900E+03
 2.79900E+03
 2.79190E+03
 2.79200E+03
 2.77190E+03
 2.78930E+03
 2.79150E+03
 2.78900E+03
 2.77210E+03
 2.74930E+03
 2.78870E+03
 2.75810E+03
 2.78120E+03
 2.77310E+03
 2.79710E+03
 2.79350E+03
 2.79220E+03
 2.79470E+03
 2.76340E+03
 2.77530E+03
 2.77570E+03
 2.80650E+03
 2.76490E+03
 2.75260E+03
 2.75750E+03
 2.81870E+03
 2.79710E+03
 2.82220E+03
 2.80690E+03
 2.79100E+03
 2.79250E+03
 2.81840E+03
 2.83810E+03
 2.80960E+03
 2.80200E+03
 2.81650E+03
 2.82790E+03
 2.79270E+03
 2.83050E+03
 2.85400E+03
 2.84450E+03
 2.84170E+03
 2.83680E+03
 2.86380E+03
 2.86110E+03
 2.88630E+03
 2.86190E+03
 2.88280E+03
 2.89050E+03
 2.88730E+03
 2.90330E+03
 2.91710E+03
 2.95170E+03
 2.93990E+03
 2.94270E+03
 2.96310E+03
 2.97120E+03
 2.99350E+03
 3.02450E+03
 3.06190E+03
 3.09640E+03
 3.11830E+03
 3.12390E+03
 3.15440E+03
 3.13080E+03
 3.13570E+03
 3.10260E+03
 3.06870E+03
 3.03000E+03
 2.98110E+03
 2.97650E+03
 2.96000E+03
 2.90910E+03
 2.89290E+03
 2.90510E+03
 2.85690E+03
 2.87860E+03
 2.85320E+03
 2.83990E+03
 2.84410E+03
 2.81250E+03
 2.81890E+03
 2.80400E+03
 2.78480E+03
 2.80250E+03
 2.80520E+03
 2.78160E+03
 2.78550E+03
 2.74910E+03
 2.74570E+03
 2.74500E+03
 2.74120E+03
 2.72940E+03
 2.71650E+03
 2.73130E+03
 2.72540E+03
 2.72220E+03
 2.70340E+03
 2.70730E+03
 2.68920E+03
 2.68600E+03
 2.68180E+03
 2.66960E+03
 2.68450E+03
 2.65260E+03
 2.67580E+03
 2.68220E+03
 2.67220E+03
 2.68290E+03
 2.65150E+03
 2.64680E+03
 2.63060E+03
 2.65620E+03
 2.65090E+03
 2.64590E+03
 2.64740E+03
 2.61110E+03
 2.64540E+03
 2.64930E+03
 2.64160E+03
 2.62680E+03
 2.63920E+03
 2.64210E+03
 2.62300E+03
 2.60790E+03
 2.63330E+03
 2.63900E+03
 2.61070E+03
 2.60570E+03
 2.61630E+03
 2.64010E+03
 2.61070E+03
 2.58210E+03
 2.60450E+03
 2.62110E+03
 2.58240E+03
 2.60150E+03
 2.56970E+03
 2.57150E+03
 2.60550E+03
 2.58180E+03
 2.57190E+03
 2.60950E+03
 2.59760E+03
 2.61050E+03
 2.58810E+03
 2.58590E+03
 2.61480E+03
 2.61870E+03
 2.59460E+03
 2.59580E+03
 2.60510E+03
 2.62100E+03
 2.62010E+03
 2.63430E+03
 2.64450E+03
 2.64080E+03
 2.64280E+03
 2.67110E+03
 2.68140E+03
 2.67350E+03
 2.71140E+03
 2.70670E+03
 2.70360E+03
 2.72890E+03
 2.74550E+03
 2.78190E+03
 2.84920E+03
 2.91230E+03
 3.00790E+03
 2.99750E+03
 2.96640E+03
 2.90240E+03
 2.79290E+03
 2.67870E+03
 2.62370E+03
 2.55180E+03
 2.54430E+03
 2.52060E+03
 2.49400E+03
 2.47860E+03
 2.49740E+03
 2.44820E+03
 2.47800E+03
 2.46350E+03
 2.48290E+03
 2.47970E+03
 2.47370E+03
 2.48500E+03
 2.51480E+03
 2.51380E+03
 2.56640E+03
 2.59440E+03
 2.65280E+03
 2.72610E+03
 2.84620E+03
 2.96470E+03
 3.11830E+03
 3.23890E+03
 3.36630E+03
 3.36880E+03
 3.29950E+03
 3.21020E+03
 3.07950E+03
 2.98770E+03
 2.87130E+03
 2.78530E+03
 2.73240E+03
 2.69200E+03
 2.63240E+03
 2.61700E+03
 2.58310E+03
 2.56580E+03
 2.54370E+03
 2.52220E+03
 2.47350E+03
 2.45620E+03
 2.44730E+03
 2.42700E+03
 2.44980E+03
 2.41870E+03
 2.41160E+03
 2.39730E+03
 2.39650E+03
 2.38730E+03
 2.37570E+03
 2.35840E+03
 2.37650E+03
 2.35490E+03
 2.35870E+03
 2.34490E+03
 2.35560E+03
 2.33860E+03
 2.34590E+03
 2.35760E+03
 2.34800E+03
 2.35610E+03
 2.33920E+03
 2.34610E+03
 2.34190E+03
 2.35020E+03
 2.34400E+03
 2.33190E+03
 2.33060E+03
 2.30140E+03
 2.28130E+03
 2.30650E+03
 2.29820E+03
 2.26980E+03
 2.25570E+03
 2.24700E+03
 2.27080E+03
 2.26560E+03
 2.24800E+03
 2.25260E+03
 2.25040E+03
 2.24620E+03
 2.22110E+03
 2.23210E+03
 2.20850E+03
 2.22310E+03
 2.21720E+03
 2.20280E+03
 2.21610E+03
 2.18690E+03
 2.19370E+03
 2.17350E+03
 2.18290E+03
 2.15430E+03
 2.16890E+03
 2.13340E+03
 2.13880E+03
 2.13360E+03
 2.11680E+03
 2.11890E+03
 2.12750E+03
 2.13710E+03
 2.10910E+03
 2.13090E+03
 2.10400E+03
 2.11430E+03
 2.11330E+03
 2.10130E+03
 2.10400E+03
 2.12090E+03
 2.12220E+03
 2.10360E+03
 2.10200E+03
 2.09620E+03
 2.10190E+03
 2.08100E+03
 2.07600E+03
 2.08660E+03
 2.08340E+03
 2.08130E+03
 2.07330E+03
 2.08320E+03
 2.08140E+03
 2.07590E+03
 2.07360E+03
 2.07310E+03
 2.08350E+03
 2.09130E+03
 2.08120E+03
 2.09690E+03
 2.08000E+03
 2.10130E+03
 2.10060E+03
 2.10420E+03
 2.12190E+03
 2.13820E+03
 2.14150E+03
 2.15390E+03
 2.16090E+03
 2.16730E+03
 2.16850E+03
 2.18370E+03
 2.20750E+03
 2.22810E+03
 2.23340E+03
 2.24120E+03
 2.25310E+03
 2.28670E+03
 2.30660E+03
 2.33070E+03
 2.36670E+03
 2.42280E+03
 2.48020E+03
 2.52240E+03
 2.58010E+03
 2.62840E+03
 2.71160E+03
 2.81120E+03
 2.88960E+03
 3.03450E+03
 3.18880E+03
 3.34670E+03
 3.53000E+03
 3.75900E+03
 4.02950E+03
 4.31310E+03
 4.72100E+03
 5.15790E+03
 5.69630E+03
 6.30690E+03
 7.08150E+03
 7.99510E+03
 9.03870E+03
 1.02702E+04
 1.15448E+04
 1.31201E+04
 1.44753E+04
 1.57367E+04
 1.66701E+04
 1.72595E+04
 1.75104E+04
 1.71710E+04
 1.66240E+04
 1.57476E+04
 1.47379E+04
 1.36608E+04
 1.26271E+04
 1.17842E+04
 1.08717E+04
 1.01181E+04
 9.46960E+03
 8.85700E+03
 8.29530E+03
 7.84820E+03
 7.42620E+03
 7.02660E+03
 6.70070E+03
 6.44290E+03
 6.17320E+03
 5.88970E+03
 5.72720E+03
 5.51360E+03
 5.36600E+03
 5.19450E+03
 5.05290E+03
 4.91000E+03
 4.80200E+03
 4.67990E+03
 4.58160E+03
 4.50140E+03
 4.34520E+03
 4.31610E+03
 4.20810E+03
 4.13720E+03
 4.09640E+03
 4.00860E+03
 3.96120E+03
 3.86370E+03
 3.81260E+03
 3.78790E+03
 3.74350E+03
 3.67880E+03
 3.67150E+03
 3.56490E+03
 3.54490E+03
 3.54000E+03
 3.49010E+03
 3.43920E+03
 3.40580E+03
 3.37280E+03
 3.35000E+03
 3.34110E+03
 3.28090E+03
 3.28650E+03
 3.22230E+03
 3.22800E+03
 3.18790E+03
 3.18460E+03
 3.14430E+03
 3.13310E+03
 3.10450E+03
 3.07810E+03
 3.08600E+03
 3.05000E+03
 3.04170E+03
 3.01480E+03
 3.00470E+03
 2.99990E+03
 2.98790E+03
 2.95640E+03
 2.92650E+03
 2.89800E+03
 2.91030E+03
 2.94230E+03
 2.90160E+03
 2.88840E+03
 2.87100E+03
 2.87940E+03
 2.82460E+03
 2.83970E+03
 2.82130E+03
 2.79230E+03
 2.81770E+03
 2.77800E+03
 2.79580E+03
 2.78770E+03
 2.78090E+03
 2.79250E+03
 2.73440E+03
 2.75030E+03
 2.71960E+03
 2.73280E+03
 2.72340E+03
 2.72070E+03
 2.70910E+03
 2.72180E+03
 2.70540E+03
 2.69450E+03
 2.69800E+03
 2.70930E+03
 2.70910E+03
 2.70370E+03
 2.66350E+03
 2.71100E+03
 2.67980E+03
 2.67880E+03
 2.65260E+03
 2.68430E+03
 2.62770E+03
 2.64370E+03
 2.66660E+03
 2.62250E+03
 2.62940E+03
 2.64230E+03
 2.64420E+03
 2.63660E+03
 2.63670E+03
 2.61220E+03
 2.61930E+03
 2.62390E+03
 2.63320E+03
 2.63540E+03
 2.62260E+03
 2.63110E+03
 2.60640E+03
 2.63590E+03
 2.64300E+03
 2.68290E+03
 2.71000E+03
 2.72330E+03
 2.77160E+03
 2.81860E+03
 2.85590E+03
 2.86780E+03
 2.88440E+03
 2.88310E+03
 2.89530E+03
 2.84030E+03
 2.86470E+03
 2.81830E+03
 2.81060E+03
 2.78500E+03
 2.77910E+03
 2.76450E+03
 2.75860E+03
 2.71280E+03
 2.70650E+03
 2.69100E+03
 2.70080E+03
 2.64390E+03
 2.67560E+03
 2.67360E+03
 2.63790E+03
 2.62640E+03
 2.63460E+03
 2.61990E+03
 2.62690E+03
 2.62390E+03
 2.60180E+03
 2.58990E+03
 2.61230E+03
 2.59370E+03
 2.62090E+03
 2.63880E+03
 2.61940E+03
 2.64330E+03
 2.62320E+03
 2.62350E+03
 2.62530E+03
 2.62220E+03
 2.62550E+03
 2.61710E+03
 2.60760E+03
 2.59850E+03
 2.57260E+03
 2.57280E+03
 2.56910E+03
 2.54330E+03
 2.56820E+03
 2.54900E+03
 2.53460E+03
 2.54170E+03
 2.53950E+03
 2.54190E+03
 2.52270E+03
 2.52750E+03
 2.51470E+03
 2.51400E+03
 2.50910E+03
 2.50730E+03
 2.51350E+03
 2.50270E+03
 2.51380E+03
 2.49160E+03
 2.49270E+03
 2.49750E+03
 2.48230E+03
 2.49990E+03
 2.49050E+03
 2.49520E+03
 2.50370E+03
 2.50010E+03
 2.46630E+03
 2.49540E+03
 2.51640E+03
 2.48950E+03
 2.48980E+03
 2.48100E+03
 2.47050E+03
 2.49150E+03
 2.48850E+03
 2.47710E+03
 2.50550E+03
 2.48030E+03
 2.47260E+03
 2.49160E+03
 2.46520E+03
 2.48100E+03
 2.45060E+03
 2.43810E+03
 2.45690E+03
 2.45500E+03
 2.43230E+03
 2.44400E+03
 2.43880E+03
 2.45070E+03
 2.44560E+03
 2.43430E+03
 2.41370E+03
 2.43020E+03
 2.41380E+03
 2.41150E+03
 2.40450E+03
 2.42180E+03
 2.38790E+03
 2.39820E+03
 2.40220E+03
 2.39030E+03
 2.38370E+03
 2.39130E+03
 2.36050E+03
 2.38070E+03
 2.36240E+03
 2.35220E+03
 2.35750E+03
 2.35850E+03
 2.36680E+03
 2.35300E+03
 2.34840E+03
 2.35010E+03
 2.34690E+03
 2.32820E+03
 2.34640E+03
 2.34120E+03
 2.32480E+03
 2.32820E+03
 2.33470E+03
 2.33480E+03
 2.31550E+03
 2.32020E+03
 2.31070E+03
 2.32220E+03
 2.31240E+03
 2.30650E+03
 2.29630E+03
 2.31680E+03
 2.32330E+03
 2.29860E+03
 2.30220E+03
 2.30750E+03
 2.30270E+03
 2.29710E+03
 2.28650E+03
 2.29960E+03
 2.31090E+03
 2.27990E+03
 2.29210E+03
 2.29120E+03
 2.29900E+03
 2.27470E+03
 2.28570E+03
 2.28620E+03
 2.27470E+03
 2.28380E+03
 2.28850E+03
 2.26720E+03
 2.26970E+03
 2.29090E+03
 2.26660E+03
 2.27600E+03
 2.28860E+03
 2.26130E+03
 2.29050E+03
 2.26580E+03
 2.26800E+03
 2.27140E+03
 2.28860E+03
 2.26810E+03
 2.25500E+03
 2.28800E+03
 2.26130E+03
 2.26140E+03
 2.28340E+03
 2.27370E+03
 2.26620E+03
 2.27240E+03
 2.26600E+03
 2.27470E+03
 2.26810E+03
 2.28320E+03
 2.26560E+03
 2.29620E+03
 2.27450E+03
 2.26240E+03
 2.27490E+03
 2.27150E+03
 2.27090E+03
 2.26910E+03
 2.26270E+03
 2.26690E+03
 2.27270E+03
 2.28370E+03
 2.26490E+03
 2.25720E+03
 2.25560E+03
 2.26220E+03
 2.27950E+03
 2.27980E+03
 2.27200E+03
 2.26300E+03
 2.28080E+03
 2.26600E+03
 2.27150E+03
 2.28520E+03
 2.27250E+03
 2.26490E+03
 2.27290E+03
 2.28340E+03
 2.26020E+03
 2.26570E+03
 2.26430E+03
 2.28040E+03
 2.25870E+03
 2.24840E+03
 2.24590E+03
 2.25140E+03
 2.26570E+03
 2.28250E+03
 2.24760E+03
 2.26020E+03
 2.25480E+03
 2.27760E+03
 2.25170E+03
 2.27760E+03
 2.25160E+03
 2.25750E+03
 2.28390E+03
 2.26460E+03
 2.25290E+03
 2.26320E+03
 2.27200E+03
 2.28210E+03
 2.26960E+03
 2.26860E+03
 2.24740E+03
 2.26560E+03
 2.26430E+03
 2.26870E+03
 2.26110E+03
 2.26260E+03
 2.28180E+03
 2.28290E+03
 2.26130E+03
 2.28750E+03
 2.26570E+03
 2.28110E+03
 2.27350E+03
 2.28090E+03
 2.27760E+03
 2.26200E+03
 2.27970E+03
 2.27790E+03
 2.27250E+03
 2.27570E+03
 2.27930E+03
 2.27970E+03
 2.26430E+03
 2.26380E+03
 2.27030E+03
 2.24940E+03
 2.24870E+03
 2.26410E+03
 2.26780E+03
 2.26760E+03
 2.26360E+03
 2.24880E+03
 2.26410E+03
 2.25770E+03
 2.28480E+03
 2.27620E+03
 2.26560E+03
 2.26890E+03
 2.26540E+03
 2.25850E+03
 2.27730E+03
 2.28620E+03
 2.26720E+03
 2.26390E+03
 2.27150E+03
 2.27350E+03
 2.27750E+03
 2.26590E+03
 2.29380E+03
 2.28880E+03
 2.26970E+03
 2.28410E+03
 2.27230E+03
 2.28270E+03
 2.27800E+03
 2.29090E+03
 2.28410E+03
 2.26600E+03
 2.26730E+03
 2.25840E+03
 2.29870E+03
 2.28020E+03
 2.28490E+03
 2.27970E+03
 2.27720E+03
 2.27300E+03
 2.27700E+03
 2.28140E+03
 2.27630E+03
 2.26660E+03
 2.27070E+03
 2.26200E+03
 2.24960E+03
 2.26720E+03
 2.26610E+03
 2.25560E+03
 2.24270E+03
 2.25370E+03
 2.25350E+03
 2.26340E+03
 2.25490E+03
 2.23780E+03
 2.25570E+03
 2.23880E+03
 2.22440E+03
 2.25340E+03
 2.24110E+03
 2.24430E+03
 2.25100E+03
 2.22660E+03
 2.23770E+03
 2.22690E+03
 2.20490E+03
 2.21120E+03
 2.21620E+03
 2.22670E+03
 2.21990E+03
 2.21820E+03
 2.22820E+03
 2.21570E+03
 2.23980E+03
 2.22450E+03
 2.21070E+03
 2.22800E+03
 2.22310E+03
 2.22520E+03
 2.22640E+03
 2.21860E+03
 2.21690E+03
 2.21530E+03
 2.21430E+03
 2.21710E+03
 2.21740E+03
 2.21120E+03
 2.21130E+03
 2.21600E+03
 2.22670E+03
 2.21130E+03
 2.22400E+03
 2.22390E+03
 2.21220E+03
 2.19980E+03
 2.23250E+03
 2.21310E+03
 2.20430E+03
 2.21440E+03
 2.21130E+03
 2.22610E+03
 2.21630E+03
 2.22640E+03
 2.20550E+03
 2.22440E+03
 2.21050E+03
 2.21360E+03
 2.21730E+03
 2.20560E+03
 2.20920E+03
 2.22600E+03
 2.20800E+03
 2.20630E+03
 2.19420E+03
 2.20440E+03
 2.21500E+03
 2.20810E+03
 2.20520E+03
 2.20650E+03
 2.21060E+03
 2.20790E+03
 2.20640E+03
 2.21670E+03
 2.19940E+03
 2.20460E+03
 2.19960E+03
 2.21790E+03
 2.21110E+03
 2.20830E+03
 2.19220E+03
 2.22150E+03
 2.20470E+03
 2.20960E+03
 2.19590E+03
 2.20860E+03
 2.19250E+03
 2.18940E+03
 2.19780E+03
 2.20080E+03
 2.21010E+03
 2.21010E+03
 2.18220E+03
 2.19230E+03
 2.19610E+03
 2.18830E+03
 2.21410E+03
 2.19410E+03
 2.21090E+03
 2.21620E+03
 2.18830E+03
 2.19660E+03
 2.20860E+03
 2.20030E+03
 2.19780E+03
 2.19160E+03
 2.19180E+03
 2.18470E+03
 2.19290E+03
 2.20260E+03
 2.19510E+03
 2.18480E+03
 2.18990E+03
 2.21010E+03
 2.20100E+03
 2.19150E+03
 2.20490E+03
 2.19610E+03
 2.20970E+03
 2.22100E+03
 2.20680E+03
 2.19680E+03
 2.21850E+03
 2.22180E+03
 2.23110E+03
 2.23800E+03
 2.22530E+03
 2.22970E+03
 2.22760E+03
 2.24290E+03
 2.24290E+03
 2.24900E+03
 2.23810E+03
 2.26280E+03
 2.26660E+03
 2.28790E+03
 2.28910E+03
 2.30950E+03
 2.31830E+03
 2.32650E+03
 2.34140E+03
 2.37290E+03
 2.41870E+03
 2.44010E+03
 2.49170E+03
 2.52270E+03
 2.57010E+03
 2.60250E+03
 2.64630E+03
 2.68230E+03
 2.70940E+03
 2.74990E+03
 2.79620E+03
 2.85580E+03
 2.88330E+03
 2.96390E+03
 2.97020E+03
 3.04560E+03
 3.07340E+03
 3.12520E+03
 3.13280E+03
 3.14560E+03
 3.17560E+03
 3.12580E+03
 3.16210E+03
 3.10930E+03
 3.11580E+03
 3.09690E+03
 3.10050E+03
 3.11230E+03
 3.10050E+03
 3.10380E+03
 3.08360E+03
 3.08420E+03
 3.09360E+03
 3.07670E+03
 3.08310E+03
 3.08130E+03
 3.11070E+03
 3.11620E+03
 3.10390E+03
 3.10590E+03
 3.10140E+03
 3.08440E+03
 3.10940E+03
 3.12440E+03
 3.11770E+03
 3.10150E+03
 3.11550E+03
 3.11370E+03
 3.11950E+03
 3.14380E+03
 3.11800E+03
 3.10550E+03
 3.12030E+03
 3.10860E+03
 3.13310E+03
 3.13330E+03
 3.15750E+03
 3.16670E+03
 3.14040E+03
 3.18300E+03
 3.14790E+03
 3.14870E+03
 3.14010E+03
 3.13130E+03
 3.15910E+03
 3.13920E+03
 3.15890E+03
 3.14300E+03
 3.15120E+03
 3.17130E+03
 3.15500E+03
 3.16600E+03
 3.16390E+03
 3.13760E+03
 3.16020E+03
 3.14830E+03
 3.15150E+03
 3.15050E+03
 3.12170E+03
 3.10370E+03
 3.10930E+03
 3.13350E+03
 3.09130E+03
 3.06330E+03
 3.02890E+03
 3.02690E+03
 2.98300E+03
 2.91220E+03
 2.87860E+03
 2.83940E+03
 2.78240E+03
 2.74720E+03
 2.68950E+03
 2.67450E+03
 2.65120E+03
 2.59380E+03
 2.55890E+03
 2.54580E+03
 2.51240E+03
 2.48520E+03
 2.48570E+03
 2.44240E+03
 2.45070E+03
 2.41600E+03
 2.40090E+03
 2.37360E+03
 2.38920E+03
 2.37390E+03
 2.36060E+03
 2.34940E+03
 2.33820E+03
 2.31130E+03
 2.30290E+03
 2.30460E+03
 2.30600E+03
 2.28770E+03
 2.29520E+03
 2.26950E+03
 2.25930E+03
 2.25930E+03
 2.25610E+03
 2.23280E+03
 2.24480E+03
 2.22070E+03
 2.22100E+03
 2.21290E+03
 2.21050E+03
 2.19350E+03
 2.19110E+03
 2.20670E+03
 2.18640E+03
 2.17340E+03
 2.17670E+03
 2.16650E+03
 2.15620E+03
 2.15150E+03
 2.15210E+03
 2.13240E+03
 2.12780E+03
 2.12010E+03
 2.11450E+03
 2.11430E+03
 2.11170E+03
 2.11630E+03
 2.09720E+03
 2.08930E+03
 2.08100E+03
 2.09890E+03
 2.07780E+03
 2.08480E+03
 2.06770E+03
 2.06030E+03
 2.05610E+03
 2.05750E+03
 2.04280E+03
 2.04010E+03
 2.04820E+03
 2.04100E+03
 2.03740E+03
 2.02490E+03
 2.02360E+03
 2.03160E+03
 2.02630E+03
 2.01480E+03
 2.01150E+03
 2.02330E+03
 2.01720E+03
 1.99320E+03
 2.01230E+03
 2.02560E+03
 2.01560E+03
 1.99730E+03
 2.00350E+03
 2.00590E+03
 2.00490E+03
 1.99080E+03
 1.99450E+03
 1.99480E+03
 2.00840E+03
 1.98110E+03
 1.99200E+03
 1.98530E+03
 2.00040E+03
 2.00340E+03
 1.98710E+03
 1.99730E+03
 1.99270E+03
 2.00180E+03
 1.99100E+03
 1.99450E+03
 2.00740E+03
 1.99140E+03
 1.99110E+03
 1.99220E+03
 1.97610E+03
 1.97790E+03
 1.98920E+03
 1.98580E+03
 1.97470E+03
 1.97980E+03
 1.98140E+03
 1.99380E+03
 1.97920E+03
 1.97690E+03
 1.97960E+03
 1.97520E+03
 1.98200E+03
 1.98720E+03
 1.97580E+03
 1.98340E+03
 1.97700E+03
 1.97500E+03
 1.97470E+03
 1.95870E+03
 1.96800E+03
 1.97210E+03
 1.96970E+03
 1.97020E+03
 1.96690E+03
 1.96270E+03
 1.97470E+03
 1.97590E+03
 1.96890E+03
 1.96200E+03
 1.97030E+03
 1.96470E+03
 1.96840E+03
 1.96680E+03
 1.98150E+03
 1.97770E+03
 1.97600E+03
 1.96540E+03
 1.95700E+03
 1.96970E+03
 1.98180E+03
 1.95970E+03
 1.97220E+03
 1.96440E+03
 1.98130E+03
 1.97510E+03
 1.96920E+03
 1.97190E+03
 1.97220E+03
 1.95860E+03
 1.96380E+03
 1.95720E+03
 1.97580E+03
 1.96950E+03
 1.95970E+03
 1.96780E+03
 1.97980E+03
 1.96040E+03
 1.95940E+03
 1.95870E+03
 1.96420E+03
 1.96070E+03
 1.96140E+03
 1.96000E+03
 1.95670E+03
