-6.27139E+01
-6.19052E+01
-6.10965E+01
-6.02880E+01
-5.94796E+01
-5.86714E+01
-5.78632E+01
-5.70552E+01
-5.62473E+01
-5.54395E+01
-5.46318E+01
-5.38243E+01
-5.30169E+01
-5.22096E+01
-5.14024E+01
-5.05953E+01
-4.97883E+01
-4.89815E+01
-4.81748E+01
-4.73682E+01
-4.65617E+01
-4.57554E+01
-4.49491E+01
-4.41430E+01
-4.33370E+01
-4.25311E+01
-4.17254E+01
-4.09197E+01
-4.01142E+01
-3.93088E+01
-3.85035E+01
-3.76983E+01
-3.68933E+01
-3.60883E+01
-3.52835E+01
-3.44788E+01
-3.36743E+01
-3.28698E+01
-3.20655E+01
-3.12612E+01
-3.04571E+01
-2.96531E+01
-2.88493E+01
-2.80455E+01
-2.72419E+01
-2.64384E+01
-2.56350E+01
-2.48317E+01
-2.40285E+01
-2.32255E+01
-2.24226E+01
-2.16198E+01
-2.08171E+01
-2.00145E+01
-1.92121E+01
-1.84097E+01
-1.76075E+01
-1.68054E+01
-1.60034E+01
-1.52016E+01
-1.43998E+01
-1.35982E+01
-1.27967E+01
-1.19953E+01
-1.11940E+01
-1.03928E+01
-9.59178E+00
-8.79085E+00
-7.99004E+00
-7.18935E+00
-6.38877E+00
-5.58831E+00
-4.78797E+00
-3.98774E+00
-3.18763E+00
-2.38764E+00
-1.58776E+00
-7.88006E-01
 1.16364E-02
 8.11162E-01
 1.61057E+00
 2.40986E+00
 3.20904E+00
 4.00810E+00
 4.80704E+00
 5.60587E+00
 6.40458E+00
 7.20317E+00
 8.00165E+00
 8.80001E+00
 9.59825E+00
 1.03964E+01
 1.11944E+01
 1.19923E+01
 1.27901E+01
 1.35877E+01
 1.43853E+01
 1.51827E+01
 1.59800E+01
 1.67772E+01
 1.75743E+01
 1.83713E+01
 1.91681E+01
 1.99649E+01
 2.07615E+01
 2.15580E+01
 2.23544E+01
 2.31507E+01
 2.39468E+01
 2.47429E+01
 2.55388E+01
 2.63346E+01
 2.71303E+01
 2.79259E+01
 2.87214E+01
 2.95167E+01
 3.03119E+01
 3.11071E+01
 3.19021E+01
 3.26970E+01
 3.34917E+01
 3.42864E+01
 3.50810E+01
 3.58754E+01
 3.66697E+01
 3.74639E+01
 3.82580E+01
 3.90520E+01
 3.98458E+01
 4.06396E+01
 4.14332E+01
 4.22267E+01
 4.30201E+01
 4.38134E+01
 4.46066E+01
 4.53996E+01
 4.61925E+01
 4.69854E+01
 4.77781E+01
 4.85707E+01
 4.93632E+01
 5.01555E+01
 5.09478E+01
 5.17399E+01
 5.25320E+01
 5.33239E+01
 5.41157E+01
 5.49074E+01
 5.56989E+01
 5.64904E+01
 5.72817E+01
 5.80730E+01
 5.88641E+01
 5.96551E+01
 6.04460E+01
 6.12367E+01
 6.20274E+01
 6.28179E+01
 6.36084E+01
 6.43987E+01
 6.51889E+01
 6.59790E+01
 6.67690E+01
 6.75588E+01
 6.83486E+01
 6.91382E+01
 6.99277E+01
 7.07172E+01
 7.15065E+01
 7.22956E+01
 7.30847E+01
 7.38737E+01
 7.46625E+01
 7.54513E+01
 7.62399E+01
 7.70284E+01
 7.78168E+01
 7.86051E+01
 7.93932E+01
 8.01813E+01
 8.09692E+01
 8.17571E+01
 8.25448E+01
 8.33324E+01
 8.41199E+01
 8.49073E+01
 8.56945E+01
 8.64817E+01
 8.72687E+01
 8.80556E+01
 8.88425E+01
 8.96292E+01
 9.04158E+01
 9.12022E+01
 9.19886E+01
 9.27749E+01
 9.35610E+01
 9.43470E+01
 9.51330E+01
 9.59188E+01
 9.67045E+01
 9.74901E+01
 9.82755E+01
 9.90609E+01
 9.98461E+01
 1.00631E+02
 1.01416E+02
 1.02201E+02
 1.02986E+02
 1.03771E+02
 1.04555E+02
 1.05340E+02
 1.06124E+02
 1.06908E+02
 1.07692E+02
 1.08476E+02
 1.09260E+02
 1.10044E+02
 1.10828E+02
 1.11611E+02
 1.12395E+02
 1.13178E+02
 1.13962E+02
 1.14745E+02
 1.15528E+02
 1.16311E+02
 1.17093E+02
 1.17876E+02
 1.18659E+02
 1.19441E+02
 1.20223E+02
 1.21006E+02
 1.21788E+02
 1.22570E+02
 1.23352E+02
 1.24134E+02
 1.24915E+02
 1.25697E+02
 1.26478E+02
 1.27260E+02
 1.28041E+02
 1.28822E+02
 1.29603E+02
 1.30384E+02
 1.31165E+02
 1.31945E+02
 1.32726E+02
 1.33507E+02
 1.34287E+02
 1.35067E+02
 1.35847E+02
 1.36627E+02
 1.37407E+02
 1.38187E+02
 1.38967E+02
 1.39746E+02
 1.40526E+02
 1.41305E+02
 1.42084E+02
 1.42864E+02
 1.43643E+02
 1.44422E+02
 1.45200E+02
 1.45979E+02
 1.46758E+02
 1.47536E+02
 1.48315E+02
 1.49093E+02
 1.49871E+02
 1.50649E+02
 1.51427E+02
 1.52205E+02
 1.52983E+02
 1.53760E+02
 1.54538E+02
 1.55315E+02
 1.56092E+02
 1.56870E+02
 1.57647E+02
 1.58424E+02
 1.59201E+02
 1.59977E+02
 1.60754E+02
 1.61530E+02
 1.62307E+02
 1.63083E+02
 1.63859E+02
 1.64635E+02
 1.65411E+02
 1.66187E+02
 1.66963E+02
 1.67739E+02
 1.68514E+02
 1.69290E+02
 1.70065E+02
 1.70840E+02
 1.71615E+02
 1.72390E+02
 1.73165E+02
 1.73940E+02
 1.74715E+02
 1.75489E+02
 1.76264E+02
 1.77038E+02
 1.77812E+02
 1.78587E+02
 1.79361E+02
 1.80135E+02
 1.80908E+02
 1.81682E+02
 1.82456E+02
 1.83229E+02
 1.84003E+02
 1.84776E+02
 1.85549E+02
 1.86322E+02
 1.87095E+02
 1.87868E+02
 1.88641E+02
 1.89413E+02
 1.90186E+02
 1.90958E+02
 1.91730E+02
 1.92503E+02
 1.93275E+02
 1.94047E+02
 1.94819E+02
 1.95590E+02
 1.96362E+02
 1.97134E+02
 1.97905E+02
 1.98676E+02
 1.99448E+02
 2.00219E+02
 2.00990E+02
 2.01761E+02
 2.02532E+02
 2.03302E+02
 2.04073E+02
 2.04843E+02
 2.05614E+02
 2.06384E+02
 2.07154E+02
 2.07924E+02
 2.08694E+02
 2.09464E+02
 2.10234E+02
 2.11003E+02
 2.11773E+02
 2.12542E+02
 2.13312E+02
 2.14081E+02
 2.14850E+02
 2.15619E+02
 2.16388E+02
 2.17157E+02
 2.17925E+02
 2.18694E+02
 2.19462E+02
 2.20231E+02
 2.20999E+02
 2.21767E+02
 2.22535E+02
 2.23303E+02
 2.24071E+02
 2.24838E+02
 2.25606E+02
 2.26374E+02
 2.27141E+02
 2.27908E+02
 2.28675E+02
 2.29443E+02
 2.30209E+02
 2.30976E+02
 2.31743E+02
 2.32510E+02
 2.33276E+02
 2.34043E+02
 2.34809E+02
 2.35575E+02
 2.36341E+02
 2.37108E+02
 2.37873E+02
 2.38639E+02
 2.39405E+02
 2.40171E+02
 2.40936E+02
 2.41701E+02
 2.42467E+02
 2.43232E+02
 2.43997E+02
 2.44762E+02
 2.45527E+02
 2.46292E+02
 2.47056E+02
 2.47821E+02
 2.48585E+02
 2.49350E+02
 2.50114E+02
 2.50878E+02
 2.51642E+02
 2.52406E+02
 2.53170E+02
 2.53933E+02
 2.54697E+02
 2.55461E+02
 2.56224E+02
 2.56987E+02
 2.57750E+02
 2.58514E+02
 2.59276E+02
 2.60039E+02
 2.60802E+02
 2.61565E+02
 2.62327E+02
 2.63090E+02
 2.63852E+02
 2.64614E+02
 2.65377E+02
 2.66139E+02
 2.66901E+02
 2.67662E+02
 2.68424E+02
 2.69186E+02
 2.69947E+02
 2.70709E+02
 2.71470E+02
 2.72231E+02
 2.72992E+02
 2.73753E+02
 2.74514E+02
 2.75275E+02
 2.76036E+02
 2.76796E+02
 2.77557E+02
 2.78317E+02
 2.79077E+02
 2.79838E+02
 2.80598E+02
 2.81358E+02
 2.82117E+02
 2.82877E+02
 2.83637E+02
 2.84396E+02
 2.85156E+02
 2.85915E+02
 2.86674E+02
 2.87434E+02
 2.88193E+02
 2.88952E+02
 2.89710E+02
 2.90469E+02
 2.91228E+02
 2.91986E+02
 2.92745E+02
 2.93503E+02
 2.94261E+02
 2.95019E+02
 2.95777E+02
 2.96535E+02
 2.97293E+02
 2.98051E+02
 2.98808E+02
 2.99566E+02
 3.00323E+02
 3.01081E+02
 3.01838E+02
 3.02595E+02
 3.03352E+02
 3.04109E+02
 3.04865E+02
 3.05622E+02
 3.06379E+02
 3.07135E+02
 3.07891E+02
 3.08648E+02
 3.09404E+02
 3.10160E+02
 3.10916E+02
 3.11672E+02
 3.12428E+02
 3.13183E+02
 3.13939E+02
 3.14694E+02
 3.15450E+02
 3.16205E+02
 3.16960E+02
 3.17715E+02
 3.18470E+02
 3.19225E+02
 3.19979E+02
 3.20734E+02
 3.21489E+02
 3.22243E+02
 3.22997E+02
 3.23752E+02
 3.24506E+02
 3.25260E+02
 3.26014E+02
 3.26767E+02
 3.27521E+02
 3.28275E+02
 3.29028E+02
 3.29782E+02
 3.30535E+02
 3.31288E+02
 3.32041E+02
 3.32794E+02
 3.33547E+02
 3.34300E+02
 3.35053E+02
 3.35805E+02
 3.36558E+02
 3.37310E+02
 3.38063E+02
 3.38815E+02
 3.39567E+02
 3.40319E+02
 3.41071E+02
 3.41823E+02
 3.42574E+02
 3.43326E+02
 3.44077E+02
 3.44829E+02
 3.45580E+02
 3.46331E+02
 3.47082E+02
 3.47833E+02
 3.48584E+02
 3.49335E+02
 3.50086E+02
 3.50836E+02
 3.51587E+02
 3.52337E+02
 3.53087E+02
 3.53838E+02
 3.54588E+02
 3.55338E+02
 3.56088E+02
 3.56837E+02
 3.57587E+02
 3.58337E+02
 3.59086E+02
 3.59835E+02
 3.60585E+02
 3.61334E+02
 3.62083E+02
 3.62832E+02
 3.63581E+02
 3.64330E+02
 3.65078E+02
 3.65827E+02
 3.66575E+02
 3.67324E+02
 3.68072E+02
 3.68820E+02
 3.69568E+02
 3.70316E+02
 3.71064E+02
 3.71812E+02
 3.72560E+02
 3.73307E+02
 3.74055E+02
 3.74802E+02
 3.75550E+02
 3.76297E+02
 3.77044E+02
 3.77791E+02
 3.78538E+02
 3.79284E+02
 3.80031E+02
 3.80778E+02
 3.81524E+02
 3.82271E+02
 3.83017E+02
 3.83763E+02
 3.84509E+02
 3.85255E+02
 3.86001E+02
 3.86747E+02
 3.87493E+02
 3.88238E+02
 3.88984E+02
 3.89729E+02
 3.90475E+02
 3.91220E+02
 3.91965E+02
 3.92710E+02
 3.93455E+02
 3.94200E+02
 3.94944E+02
 3.95689E+02
 3.96433E+02
 3.97178E+02
 3.97922E+02
 3.98666E+02
 3.99411E+02
 4.00155E+02
 4.00899E+02
 4.01642E+02
 4.02386E+02
 4.03130E+02
 4.03873E+02
 4.04617E+02
 4.05360E+02
 4.06103E+02
 4.06846E+02
 4.07590E+02
 4.08332E+02
 4.09075E+02
 4.09818E+02
 4.10561E+02
 4.11303E+02
 4.12046E+02
 4.12788E+02
 4.13530E+02
 4.14273E+02
 4.15015E+02
 4.15757E+02
 4.16499E+02
 4.17240E+02
 4.17982E+02
 4.18724E+02
 4.19465E+02
 4.20206E+02
 4.20948E+02
 4.21689E+02
 4.22430E+02
 4.23171E+02
 4.23912E+02
 4.24653E+02
 4.25393E+02
 4.26134E+02
 4.26875E+02
 4.27615E+02
 4.28355E+02
 4.29096E+02
 4.29836E+02
 4.30576E+02
 4.31316E+02
 4.32055E+02
 4.32795E+02
 4.33535E+02
 4.34274E+02
 4.35014E+02
 4.35753E+02
 4.36492E+02
 4.37232E+02
 4.37971E+02
 4.38710E+02
 4.39448E+02
 4.40187E+02
 4.40926E+02
 4.41664E+02
 4.42403E+02
 4.43141E+02
 4.43880E+02
 4.44618E+02
 4.45356E+02
 4.46094E+02
 4.46832E+02
 4.47570E+02
 4.48307E+02
 4.49045E+02
 4.49782E+02
 4.50520E+02
 4.51257E+02
 4.51994E+02
 4.52732E+02
 4.53469E+02
 4.54206E+02
 4.54942E+02
 4.55679E+02
 4.56416E+02
 4.57152E+02
 4.57889E+02
 4.58625E+02
 4.59361E+02
 4.60098E+02
 4.60834E+02
 4.61570E+02
 4.62306E+02
 4.63041E+02
 4.63777E+02
 4.64513E+02
 4.65248E+02
 4.65984E+02
 4.66719E+02
 4.67454E+02
 4.68189E+02
 4.68924E+02
 4.69659E+02
 4.70394E+02
 4.71129E+02
 4.71863E+02
 4.72598E+02
 4.73332E+02
 4.74067E+02
 4.74801E+02
 4.75535E+02
 4.76269E+02
 4.77003E+02
 4.77737E+02
 4.78471E+02
 4.79205E+02
 4.79938E+02
 4.80672E+02
 4.81405E+02
 4.82138E+02
 4.82872E+02
 4.83605E+02
 4.84338E+02
 4.85071E+02
 4.85804E+02
 4.86536E+02
 4.87269E+02
 4.88002E+02
 4.88734E+02
 4.89466E+02
 4.90199E+02
 4.90931E+02
 4.91663E+02
 4.92395E+02
 4.93127E+02
 4.93859E+02
 4.94590E+02
 4.95322E+02
 4.96053E+02
 4.96785E+02
 4.97516E+02
 4.98247E+02
 4.98979E+02
 4.99710E+02
 5.00441E+02
 5.01171E+02
 5.01902E+02
 5.02633E+02
 5.03363E+02
 5.04094E+02
 5.04824E+02
 5.05555E+02
 5.06285E+02
 5.07015E+02
 5.07745E+02
 5.08475E+02
 5.09205E+02
 5.09934E+02
 5.10664E+02
 5.11394E+02
 5.12123E+02
 5.12852E+02
 5.13582E+02
 5.14311E+02
 5.15040E+02
 5.15769E+02
 5.16498E+02
 5.17227E+02
 5.17955E+02
 5.18684E+02
 5.19412E+02
 5.20141E+02
 5.20869E+02
 5.21597E+02
 5.22326E+02
 5.23054E+02
 5.23782E+02
 5.24510E+02
 5.25237E+02
 5.25965E+02
 5.26693E+02
 5.27420E+02
 5.28147E+02
 5.28875E+02
 5.29602E+02
 5.30329E+02
 5.31056E+02
 5.31783E+02
 5.32510E+02
 5.33237E+02
 5.33963E+02
 5.34690E+02
 5.35416E+02
 5.36143E+02
 5.36869E+02
 5.37595E+02
 5.38321E+02
 5.39047E+02
 5.39773E+02
 5.40499E+02
 5.41225E+02
 5.41950E+02
 5.42676E+02
 5.43401E+02
 5.44127E+02
 5.44852E+02
 5.45577E+02
 5.46302E+02
 5.47027E+02
 5.47752E+02
 5.48477E+02
 5.49202E+02
 5.49926E+02
 5.50651E+02
 5.51375E+02
 5.52100E+02
 5.52824E+02
 5.53548E+02
 5.54272E+02
 5.54996E+02
 5.55720E+02
 5.56444E+02
 5.57168E+02
 5.57891E+02
 5.58615E+02
 5.59338E+02
 5.60062E+02
 5.60785E+02
 5.61508E+02
 5.62231E+02
 5.62954E+02
 5.63677E+02
 5.64400E+02
 5.65122E+02
 5.65845E+02
 5.66567E+02
 5.67290E+02
 5.68012E+02
 5.68734E+02
 5.69457E+02
 5.70179E+02
 5.70901E+02
 5.71623E+02
 5.72344E+02
 5.73066E+02
 5.73788E+02
 5.74509E+02
 5.75231E+02
 5.75952E+02
 5.76673E+02
 5.77394E+02
 5.78115E+02
 5.78836E+02
 5.79557E+02
 5.80278E+02
 5.80999E+02
 5.81719E+02
 5.82440E+02
 5.83160E+02
 5.83881E+02
 5.84601E+02
 5.85321E+02
 5.86041E+02
 5.86761E+02
 5.87481E+02
 5.88201E+02
 5.88920E+02
 5.89640E+02
 5.90360E+02
 5.91079E+02
 5.91798E+02
 5.92518E+02
 5.93237E+02
 5.93956E+02
 5.94675E+02
 5.95394E+02
 5.96112E+02
 5.96831E+02
 5.97550E+02
 5.98268E+02
 5.98987E+02
 5.99705E+02
 6.00423E+02
 6.01141E+02
 6.01860E+02
 6.02578E+02
 6.03295E+02
 6.04013E+02
 6.04731E+02
 6.05449E+02
 6.06166E+02
 6.06884E+02
 6.07601E+02
 6.08318E+02
 6.09035E+02
 6.09752E+02
 6.10469E+02
 6.11186E+02
 6.11903E+02
 6.12620E+02
 6.13337E+02
 6.14053E+02
 6.14770E+02
 6.15486E+02
 6.16202E+02
 6.16918E+02
 6.17634E+02
 6.18350E+02
 6.19066E+02
 6.19782E+02
 6.20498E+02
 6.21214E+02
 6.21929E+02
 6.22645E+02
 6.23360E+02
 6.24075E+02
 6.24791E+02
 6.25506E+02
 6.26221E+02
 6.26936E+02
 6.27651E+02
 6.28365E+02
 6.29080E+02
 6.29795E+02
 6.30509E+02
 6.31224E+02
 6.31938E+02
 6.32652E+02
 6.33366E+02
 6.34080E+02
 6.34794E+02
 6.35508E+02
 6.36222E+02
 6.36936E+02
 6.37649E+02
 6.38363E+02
 6.39076E+02
 6.39790E+02
 6.40503E+02
 6.41216E+02
 6.41929E+02
 6.42642E+02
 6.43355E+02
 6.44068E+02
 6.44780E+02
 6.45493E+02
 6.46206E+02
 6.46918E+02
 6.47631E+02
 6.48343E+02
 6.49055E+02
 6.49767E+02
 6.50479E+02
 6.51191E+02
 6.51903E+02
 6.52615E+02
 6.53326E+02
 6.54038E+02
 6.54749E+02
 6.55461E+02
 6.56172E+02
 6.56883E+02
 6.57595E+02
 6.58306E+02
 6.59017E+02
 6.59727E+02
 6.60438E+02
 6.61149E+02
 6.61860E+02
 6.62570E+02
 6.63281E+02
 6.63991E+02
 6.64701E+02
 6.65411E+02
 6.66121E+02
 6.66831E+02
 6.67541E+02
 6.68251E+02
 6.68961E+02
 6.69671E+02
 6.70380E+02
 6.71090E+02
 6.71799E+02
 6.72508E+02
 6.73218E+02
 6.73927E+02
 6.74636E+02
 6.75345E+02
 6.76054E+02
 6.76762E+02
 6.77471E+02
 6.78180E+02
 6.78888E+02
 6.79597E+02
 6.80305E+02
 6.81013E+02
 6.81721E+02
 6.82430E+02
 6.83138E+02
 6.83845E+02
 6.84553E+02
 6.85261E+02
 6.85969E+02
 6.86676E+02
 6.87384E+02
 6.88091E+02
 6.88798E+02
 6.89506E+02
 6.90213E+02
 6.90920E+02
 6.91627E+02
 6.92334E+02
 6.93041E+02
 6.93747E+02
 6.94454E+02
 6.95160E+02
 6.95867E+02
 6.96573E+02
 6.97279E+02
 6.97986E+02
 6.98692E+02
 6.99398E+02
 7.00104E+02
 7.00810E+02
 7.01515E+02
 7.02221E+02
 7.02927E+02
 7.03632E+02
 7.04337E+02
 7.05043E+02
 7.05748E+02
 7.06453E+02
 7.07158E+02
 7.07863E+02
 7.08568E+02
 7.09273E+02
 7.09978E+02
 7.10682E+02
 7.11387E+02
 7.12091E+02
 7.12796E+02
 7.13500E+02
 7.14204E+02
 7.14908E+02
 7.15612E+02
 7.16316E+02
 7.17020E+02
 7.17724E+02
 7.18428E+02
 7.19131E+02
 7.19835E+02
 7.20538E+02
 7.21242E+02
 7.21945E+02
 7.22648E+02
 7.23351E+02
 7.24054E+02
 7.24757E+02
 7.25460E+02
 7.26163E+02
 7.26866E+02
 7.27568E+02
 7.28271E+02
 7.28973E+02
 7.29675E+02
 7.30378E+02
 7.31080E+02
 7.31782E+02
 7.32484E+02
 7.33186E+02
 7.33888E+02
 7.34589E+02
 7.35291E+02
 7.35993E+02
 7.36694E+02
 7.37395E+02
 7.38097E+02
 7.38798E+02
 7.39499E+02
 7.40200E+02
 7.40901E+02
 7.41602E+02
 7.42303E+02
 7.43004E+02
 7.43704E+02
 7.44405E+02
 7.45105E+02
 7.45806E+02
 7.46506E+02
 7.47206E+02
 7.47906E+02
 7.48606E+02
 7.49306E+02
 7.50006E+02
 7.50706E+02
 7.51406E+02
 7.52105E+02
 7.52805E+02
 7.53504E+02
 7.54204E+02
 7.54903E+02
 7.55602E+02
 7.56301E+02
 7.57001E+02
 7.57699E+02
 7.58398E+02
 7.59097E+02
 7.59796E+02
 7.60494E+02
 7.61193E+02
 7.61891E+02
 7.62590E+02
 7.63288E+02
 7.63986E+02
 7.64684E+02
 7.65383E+02
 7.66080E+02
 7.66778E+02
 7.67476E+02
 7.68174E+02
 7.68871E+02
 7.69569E+02
 7.70266E+02
 7.70964E+02
 7.71661E+02
 7.72358E+02
 7.73055E+02
 7.73752E+02
 7.74449E+02
 7.75146E+02
 7.75843E+02
 7.76540E+02
 7.77236E+02
 7.77933E+02
 7.78629E+02
 7.79326E+02
 7.80022E+02
 7.80718E+02
 7.81414E+02
 7.82110E+02
 7.82806E+02
 7.83502E+02
 7.84198E+02
 7.84894E+02
 7.85589E+02
 7.86285E+02
 7.86980E+02
 7.87676E+02
 7.88371E+02
 7.89066E+02
 7.89761E+02
 7.90456E+02
 7.91151E+02
 7.91846E+02
 7.92541E+02
 7.93236E+02
 7.93930E+02
 7.94625E+02
 7.95319E+02
 7.96014E+02
 7.96708E+02
 7.97402E+02
 7.98096E+02
 7.98791E+02
 7.99484E+02
 8.00178E+02
 8.00872E+02
 8.01566E+02
 8.02260E+02
 8.02953E+02
 8.03647E+02
 8.04340E+02
 8.05033E+02
 8.05727E+02
 8.06420E+02
 8.07113E+02
 8.07806E+02
 8.08499E+02
 8.09191E+02
 8.09884E+02
 8.10577E+02
 8.11269E+02
 8.11962E+02
 8.12654E+02
 8.13347E+02
 8.14039E+02
 8.14731E+02
 8.15423E+02
 8.16115E+02
 8.16807E+02
 8.17499E+02
 8.18191E+02
 8.18882E+02
 8.19574E+02
 8.20266E+02
 8.20957E+02
 8.21648E+02
 8.22340E+02
 8.23031E+02
 8.23722E+02
 8.24413E+02
 8.25104E+02
 8.25795E+02
 8.26485E+02
 8.27176E+02
 8.27867E+02
 8.28557E+02
 8.29248E+02
 8.29938E+02
 8.30628E+02
 8.31319E+02
 8.32009E+02
 8.32699E+02
 8.33389E+02
 8.34079E+02
 8.34769E+02
 8.35458E+02
 8.36148E+02
 8.36837E+02
 8.37527E+02
 8.38216E+02
 8.38906E+02
 8.39595E+02
 8.40284E+02
 8.40973E+02
 8.41662E+02
 8.42351E+02
 8.43040E+02
 8.43729E+02
 8.44417E+02
 8.45106E+02
 8.45794E+02
 8.46483E+02
 8.47171E+02
 8.47859E+02
 8.48548E+02
 8.49236E+02
 8.49924E+02
 8.50612E+02
 8.51300E+02
 8.51987E+02
 8.52675E+02
 8.53363E+02
 8.54050E+02
 8.54738E+02
 8.55425E+02
 8.56112E+02
 8.56800E+02
 8.57487E+02
 8.58174E+02
 8.58861E+02
 8.59548E+02
 8.60235E+02
 8.60921E+02
 8.61608E+02
 8.62295E+02
 8.62981E+02
 8.63668E+02
 8.64354E+02
 8.65040E+02
 8.65726E+02
 8.66412E+02
 8.67098E+02
 8.67784E+02
 8.68470E+02
 8.69156E+02
 8.69842E+02
 8.70527E+02
 8.71213E+02
 8.71898E+02
 8.72584E+02
 8.73269E+02
 8.73954E+02
 8.74639E+02
 8.75325E+02
 8.76010E+02
 8.76694E+02
 8.77379E+02
 8.78064E+02
 8.78749E+02
 8.79433E+02
 8.80118E+02
 8.80802E+02
 8.81487E+02
 8.82171E+02
 8.82855E+02
 8.83539E+02
 8.84223E+02
 8.84907E+02
 8.85591E+02
 8.86275E+02
 8.86959E+02
 8.87642E+02
 8.88326E+02
 8.89009E+02
 8.89693E+02
 8.90376E+02
 8.91059E+02
 8.91742E+02
 8.92425E+02
 8.93108E+02
 8.93791E+02
 8.94474E+02
 8.95157E+02
 8.95840E+02
 8.96522E+02
 8.97205E+02
 8.97887E+02
 8.98570E+02
 8.99252E+02
 8.99934E+02
 9.00616E+02
 9.01298E+02
 9.01980E+02
 9.02662E+02
 9.03344E+02
 9.04026E+02
 9.04708E+02
 9.05389E+02
 9.06071E+02
 9.06752E+02
 9.07433E+02
 9.08115E+02
 9.08796E+02
 9.09477E+02
 9.10158E+02
 9.10839E+02
 9.11520E+02
 9.12201E+02
 9.12882E+02
 9.13562E+02
 9.14243E+02
 9.14923E+02
 9.15604E+02
 9.16284E+02
 9.16964E+02
 9.17644E+02
 9.18325E+02
 9.19005E+02
 9.19685E+02
 9.20364E+02
 9.21044E+02
 9.21724E+02
 9.22404E+02
 9.23083E+02
 9.23763E+02
 9.24442E+02
 9.25121E+02
 9.25801E+02
 9.26480E+02
 9.27159E+02
 9.27838E+02
 9.28517E+02
 9.29196E+02
 9.29874E+02
 9.30553E+02
 9.31232E+02
 9.31910E+02
 9.32589E+02
 9.33267E+02
 9.33945E+02
 9.34624E+02
 9.35302E+02
 9.35980E+02
 9.36658E+02
 9.37336E+02
 9.38014E+02
 9.38692E+02
 9.39369E+02
 9.40047E+02
 9.40724E+02
 9.41402E+02
 9.42079E+02
 9.42757E+02
 9.43434E+02
 9.44111E+02
 9.44788E+02
 9.45465E+02
 9.46142E+02
 9.46819E+02
 9.47496E+02
 9.48172E+02
 9.48849E+02
 9.49525E+02
 9.50202E+02
 9.50878E+02
 9.51555E+02
 9.52231E+02
 9.52907E+02
 9.53583E+02
 9.54259E+02
 9.54935E+02
 9.55611E+02
 9.56287E+02
 9.56962E+02
 9.57638E+02
 9.58314E+02
 9.58989E+02
 9.59664E+02
 9.60340E+02
 9.61015E+02
 9.61690E+02
 9.62365E+02
 9.63040E+02
 9.63715E+02
 9.64390E+02
 9.65065E+02
 9.65739E+02
 9.66414E+02
 9.67089E+02
 9.67763E+02
 9.68438E+02
 9.69112E+02
 9.69786E+02
 9.70460E+02
 9.71134E+02
 9.71808E+02
 9.72482E+02
 9.73156E+02
 9.73830E+02
 9.74504E+02
 9.75177E+02
 9.75851E+02
 9.76524E+02
 9.77198E+02
 9.77871E+02
 9.78544E+02
 9.79218E+02
 9.79891E+02
 9.80564E+02
 9.81237E+02
 9.81910E+02
 9.82582E+02
 9.83255E+02
 9.83928E+02
 9.84600E+02
 9.85273E+02
 9.85945E+02
 9.86618E+02
 9.87290E+02
 9.87962E+02
 9.88634E+02
 9.89306E+02
 9.89978E+02
 9.90650E+02
 9.91322E+02
 9.91994E+02
 9.92665E+02
 9.93337E+02
 9.94008E+02
 9.94680E+02
 9.95351E+02
 9.96023E+02
 9.96694E+02
 9.97365E+02
 9.98036E+02
 9.98707E+02
 9.99378E+02
 1.00005E+03
 1.00072E+03
 1.00139E+03
 1.00206E+03
 1.00273E+03
 1.00340E+03
 1.00407E+03
 1.00474E+03
 1.00541E+03
 1.00608E+03
 1.00675E+03
 1.00742E+03
 1.00809E+03
 1.00876E+03
 1.00943E+03
 1.01010E+03
 1.01077E+03
 1.01144E+03
 1.01211E+03
 1.01278E+03
 1.01345E+03
 1.01412E+03
 1.01479E+03
 1.01546E+03
 1.01613E+03
 1.01680E+03
 1.01746E+03
 1.01813E+03
 1.01880E+03
 1.01947E+03
 1.02014E+03
 1.02081E+03
 1.02148E+03
 1.02214E+03
 1.02281E+03
 1.02348E+03
 1.02415E+03
 1.02482E+03
 1.02549E+03
 1.02615E+03
 1.02682E+03
 1.02749E+03
 1.02816E+03
 1.02882E+03
 1.02949E+03
 1.03016E+03
 1.03083E+03
 1.03149E+03
 1.03216E+03
 1.03283E+03
 1.03350E+03
 1.03416E+03
 1.03483E+03
 1.03550E+03
 1.03616E+03
 1.03683E+03
 1.03750E+03
 1.03816E+03
 1.03883E+03
 1.03950E+03
 1.04016E+03
 1.04083E+03
 1.04150E+03
 1.04216E+03
 1.04283E+03
 1.04349E+03
 1.04416E+03
 1.04483E+03
 1.04549E+03
 1.04616E+03
 1.04682E+03
 1.04749E+03
 1.04815E+03
 1.04882E+03
 1.04948E+03
 1.05015E+03
 1.05081E+03
 1.05148E+03
 1.05214E+03
 1.05281E+03
 1.05347E+03
 1.05414E+03
 1.05480E+03
 1.05547E+03
 1.05613E+03
 1.05680E+03
 1.05746E+03
 1.05813E+03
 1.05879E+03
 1.05946E+03
 1.06012E+03
 1.06078E+03
 1.06145E+03
 1.06211E+03
 1.06278E+03
 1.06344E+03
 1.06410E+03
 1.06477E+03
 1.06543E+03
 1.06609E+03
 1.06676E+03
 1.06742E+03
 1.06808E+03
 1.06875E+03
 1.06941E+03
 1.07007E+03
 1.07074E+03
 1.07140E+03
 1.07206E+03
 1.07272E+03
 1.07339E+03
 1.07405E+03
 1.07471E+03
 1.07538E+03
 1.07604E+03
 1.07670E+03
 1.07736E+03
 1.07802E+03
 1.07869E+03
 1.07935E+03
 1.08001E+03
 1.08067E+03
 1.08133E+03
 1.08200E+03
 1.08266E+03
 1.08332E+03
 1.08398E+03
 1.08464E+03
 1.08530E+03
 1.08597E+03
 1.08663E+03
 1.08729E+03
 1.08795E+03
 1.08861E+03
 1.08927E+03
 1.08993E+03
 1.09059E+03
 1.09125E+03
 1.09191E+03
 1.09257E+03
 1.09324E+03
 1.09390E+03
 1.09456E+03
 1.09522E+03
 1.09588E+03
 1.09654E+03
 1.09720E+03
 1.09786E+03
 1.09852E+03
 1.09918E+03
 1.09984E+03
 1.10050E+03
 1.10116E+03
