 1.58190E+03
 1.58260E+03
 1.57950E+03
 1.58030E+03
 1.58100E+03
 1.57850E+03
 1.57960E+03
 1.58030E+03
 1.58130E+03
 1.57740E+03
 1.57920E+03
 1.58040E+03
 1.58030E+03
 1.57990E+03
 1.57900E+03
 1.58450E+03
 1.58040E+03
 1.57910E+03
 1.58110E+03
 1.57990E+03
 1.57890E+03
 1.58010E+03
 1.57800E+03
 1.58030E+03
 1.58020E+03
 1.58200E+03
 1.57930E+03
 1.58010E+03
 1.57990E+03
 1.58220E+03
 1.57970E+03
 1.58030E+03
 1.57950E+03
 1.58220E+03
 1.58130E+03
 1.58100E+03
 1.57940E+03
 1.58300E+03
 1.57900E+03
 1.57960E+03
 1.58040E+03
 1.58070E+03
 1.58010E+03
 1.58100E+03
 1.57990E+03
 1.57940E+03
 1.58060E+03
 1.58140E+03
 1.58130E+03
 1.58040E+03
 1.58060E+03
 1.57890E+03
 1.58090E+03
 1.57950E+03
 1.57770E+03
 1.57880E+03
 1.58070E+03
 1.58120E+03
 1.57980E+03
 1.57930E+03
 1.58140E+03
 1.58060E+03
 1.58000E+03
 1.58010E+03
 1.58040E+03
 1.58050E+03
 1.58100E+03
 1.57990E+03
 1.57890E+03
 1.58250E+03
 1.58210E+03
 1.58210E+03
 1.58000E+03
 1.58040E+03
 1.58100E+03
 1.58290E+03
 1.60240E+03
 1.66920E+03
 1.75380E+03
 1.73980E+03
 1.62780E+03
 1.59230E+03
 1.58300E+03
 1.58110E+03
 1.57990E+03
 1.58120E+03
 1.58020E+03
 1.58030E+03
 1.57990E+03
 1.58280E+03
 1.58220E+03
 1.57950E+03
 1.58300E+03
 1.57960E+03
 1.58230E+03
 1.57850E+03
 1.58050E+03
 1.58150E+03
 1.58160E+03
 1.58190E+03
 1.58180E+03
 1.58090E+03
 1.58030E+03
 1.58030E+03
 1.58210E+03
 1.58180E+03
 1.58210E+03
 1.58130E+03
 1.57980E+03
 1.57950E+03
 1.58070E+03
 1.58080E+03
 1.58170E+03
 1.58290E+03
 1.58230E+03
 1.58170E+03
 1.57920E+03
 1.58100E+03
 1.58020E+03
 1.58260E+03
 1.58150E+03
 1.57850E+03
 1.58090E+03
 1.58050E+03
 1.58110E+03
 1.58160E+03
 1.58010E+03
 1.57940E+03
 1.58010E+03
 1.58080E+03
 1.58090E+03
 1.58110E+03
 1.58210E+03
 1.57940E+03
 1.58070E+03
 1.58190E+03
 1.57930E+03
 1.57910E+03
 1.57960E+03
 1.58280E+03
 1.58240E+03
 1.58100E+03
 1.57960E+03
 1.58320E+03
 1.58100E+03
 1.58140E+03
 1.58350E+03
 1.58190E+03
 1.58310E+03
 1.58500E+03
 1.58360E+03
 1.58740E+03
 1.59090E+03
 1.59580E+03
 1.60240E+03
 1.61350E+03
 1.62510E+03
 1.63710E+03
 1.65780E+03
 1.67530E+03
 1.69270E+03
 1.72030E+03
 1.75270E+03
 1.79040E+03
 1.82820E+03
 1.88050E+03
 1.92140E+03
 1.98070E+03
 2.02980E+03
 2.10060E+03
 2.19590E+03
 2.25910E+03
 2.34940E+03
 2.44850E+03
 2.54130E+03
 2.63220E+03
 2.71980E+03
 2.79510E+03
 2.85950E+03
 2.93970E+03
 2.97880E+03
 3.02610E+03
 3.06720E+03
 3.08380E+03
 3.07320E+03
 3.09590E+03
 3.11110E+03
 3.13530E+03
 3.09060E+03
 3.08710E+03
 3.10240E+03
 3.10600E+03
 3.14290E+03
 3.10890E+03
 3.13560E+03
 3.15460E+03
 3.15530E+03
 3.17630E+03
 3.14090E+03
 3.16910E+03
 3.16820E+03
 3.19340E+03
 3.18110E+03
 3.18530E+03
 3.20750E+03
 3.19940E+03
 3.16420E+03
 3.20380E+03
 3.18560E+03
 3.14040E+03
 3.15160E+03
 3.14860E+03
 3.13540E+03
 3.13570E+03
 3.10710E+03
 3.10650E+03
 3.10940E+03
 3.11330E+03
 3.07670E+03
 3.07660E+03
 3.07900E+03
 3.08510E+03
 3.09320E+03
 3.07080E+03
 3.04410E+03
 3.08920E+03
 3.05440E+03
 3.07580E+03
 3.03650E+03
 3.04710E+03
 3.07030E+03
 3.07660E+03
 3.05200E+03
 3.06190E+03
 3.05860E+03
 3.06640E+03
 3.05620E+03
 3.04810E+03
 3.06170E+03
 3.04770E+03
 3.03820E+03
 3.03540E+03
 3.03460E+03
 3.01250E+03
 3.04620E+03
 3.01970E+03
 3.03930E+03
 3.02710E+03
 3.03550E+03
 3.03970E+03
 3.04590E+03
 3.00850E+03
 3.02820E+03
 3.02340E+03
 3.00320E+03
 3.01460E+03
 2.99400E+03
 3.01990E+03
 3.01640E+03
 3.03170E+03
 2.99760E+03
 3.02070E+03
 2.99680E+03
 3.01670E+03
 2.97940E+03
 2.99580E+03
 3.00990E+03
 3.00040E+03
 2.98420E+03
 3.00280E+03
 2.98370E+03
 2.96490E+03
 2.96700E+03
 2.96420E+03
 2.96720E+03
 2.93150E+03
 2.95520E+03
 2.95240E+03
 2.95810E+03
 2.94250E+03
 2.94110E+03
 2.94740E+03
 2.92880E+03
 2.95370E+03
 2.92640E+03
 2.94100E+03
 2.90180E+03
 2.92000E+03
 2.90260E+03
 2.91830E+03
 2.92170E+03
 2.90000E+03
 2.91410E+03
 2.90340E+03
 2.89450E+03
 2.89210E+03
 2.90410E+03
 2.89760E+03
 2.90300E+03
 2.89800E+03
 2.89490E+03
 2.90990E+03
 2.89870E+03
 2.90250E+03
 2.90390E+03
 2.88640E+03
 2.86700E+03
 2.89550E+03
 2.90640E+03
 2.88190E+03
 2.89540E+03
 2.89680E+03
 2.89060E+03
 2.88060E+03
 2.89140E+03
 2.87420E+03
 2.85580E+03
 2.88980E+03
 2.89450E+03
 2.87980E+03
 2.87290E+03
 2.84320E+03
 2.87220E+03
 2.89410E+03
 2.85140E+03
 2.86130E+03
 2.85500E+03
 2.84460E+03
 2.86060E+03
 2.85830E+03
 2.84780E+03
 2.84900E+03
 2.83620E+03
 2.85000E+03
 2.86930E+03
 2.86510E+03
 2.87180E+03
 2.87000E+03
 2.85720E+03
 2.85320E+03
 2.85470E+03
 2.86730E+03
 2.84490E+03
 2.84530E+03
 2.84770E+03
 2.87390E+03
 2.88520E+03
 2.88250E+03
 2.87070E+03
 2.88910E+03
 2.87830E+03
 2.86530E+03
 2.87320E+03
 2.89760E+03
 2.87390E+03
 2.88590E+03
 2.88640E+03
 2.89920E+03
 2.91120E+03
 2.92740E+03
 2.91610E+03
 2.92020E+03
 2.93820E+03
 2.96570E+03
 2.97270E+03
 3.00260E+03
 3.01890E+03
 3.08070E+03
 3.04600E+03
 3.02250E+03
 3.02160E+03
 3.02320E+03
 3.02910E+03
 3.01040E+03
 2.99480E+03
 3.01480E+03
 3.01370E+03
 2.98200E+03
 2.97770E+03
 2.96220E+03
 2.96740E+03
 2.94690E+03
 2.94550E+03
 2.94600E+03
 2.94550E+03
 2.96130E+03
 2.90510E+03
 2.94710E+03
 2.90010E+03
 2.91490E+03
 2.91030E+03
 2.89810E+03
 2.89460E+03
 2.92130E+03
 2.92120E+03
 2.90540E+03
 2.93460E+03
 2.92610E+03
 2.92390E+03
 2.89940E+03
 2.91450E+03
 2.91370E+03
 2.91540E+03
 2.90110E+03
 2.91450E+03
 2.91200E+03
 2.90440E+03
 2.89430E+03
 2.91440E+03
 2.88280E+03
 2.89340E+03
 2.89780E+03
 2.90440E+03
 2.89020E+03
 2.89510E+03
 2.92780E+03
 2.89660E+03
 2.90880E+03
 2.90050E+03
 2.89100E+03
 2.89590E+03
 2.88640E+03
 2.88200E+03
 2.85350E+03
 2.87380E+03
 2.88780E+03
 2.90380E+03
 2.91130E+03
 2.89760E+03
 2.91960E+03
 2.90750E+03
 2.89970E+03
 2.93750E+03
 2.90990E+03
 2.92870E+03
 2.91270E+03
 2.91610E+03
 2.93330E+03
 2.94200E+03
 2.94770E+03
 2.93930E+03
 2.95610E+03
 2.90960E+03
 2.92160E+03
 2.94670E+03
 2.93330E+03
 2.96890E+03
 2.98410E+03
 2.97490E+03
 2.98550E+03
 2.95320E+03
 2.98930E+03
 2.99950E+03
 3.02400E+03
 3.01860E+03
 3.01270E+03
 3.05920E+03
 3.05070E+03
 3.05170E+03
 3.07550E+03
 3.13440E+03
 3.12200E+03
 3.14350E+03
 3.18130E+03
 3.23090E+03
 3.22900E+03
 3.24660E+03
 3.29410E+03
 3.23970E+03
 3.24280E+03
 3.19090E+03
 3.17760E+03
 3.17940E+03
 3.11660E+03
 3.08190E+03
 3.07540E+03
 3.03390E+03
 3.00110E+03
 3.01520E+03
 2.97920E+03
 2.98130E+03
 2.99450E+03
 2.94680E+03
 2.90290E+03
 2.92980E+03
 2.93270E+03
 2.91620E+03
 2.93190E+03
 2.90290E+03
 2.89550E+03
 2.89170E+03
 2.88310E+03
 2.88310E+03
 2.86910E+03
 2.86020E+03
 2.84810E+03
 2.83660E+03
 2.84190E+03
 2.83410E+03
 2.85420E+03
 2.81450E+03
 2.80130E+03
 2.79190E+03
 2.82500E+03
 2.81510E+03
 2.81420E+03
 2.78550E+03
 2.79790E+03
 2.81080E+03
 2.77750E+03
 2.79380E+03
 2.77780E+03
 2.79480E+03
 2.78080E+03
 2.76530E+03
 2.77670E+03
 2.74880E+03
 2.77340E+03
 2.76890E+03
 2.75240E+03
 2.73290E+03
 2.74210E+03
 2.76190E+03
 2.75920E+03
 2.76350E+03
 2.75130E+03
 2.73110E+03
 2.75300E+03
 2.75390E+03
 2.75860E+03
 2.76870E+03
 2.75580E+03
 2.72110E+03
 2.72880E+03
 2.71550E+03
 2.74070E+03
 2.73940E+03
 2.71690E+03
 2.73620E+03
 2.71460E+03
 2.72930E+03
 2.70750E+03
 2.72090E+03
 2.70760E+03
 2.72330E+03
 2.71780E+03
 2.73260E+03
 2.73320E+03
 2.71490E+03
 2.73740E+03
 2.73890E+03
 2.73620E+03
 2.73500E+03
 2.74840E+03
 2.74860E+03
 2.75130E+03
 2.73990E+03
 2.77410E+03
 2.76640E+03
 2.78900E+03
 2.78150E+03
 2.80260E+03
 2.81170E+03
 2.81380E+03
 2.84220E+03
 2.83210E+03
 2.84940E+03
 2.89190E+03
 2.90010E+03
 2.90720E+03
 2.93490E+03
 2.97700E+03
 3.03910E+03
 3.11980E+03
 3.17740E+03
 3.17900E+03
 3.15680E+03
 3.01860E+03
 2.93320E+03
 2.81920E+03
 2.71060E+03
 2.66180E+03
 2.63710E+03
 2.62910E+03
 2.59160E+03
 2.61240E+03
 2.60840E+03
 2.59970E+03
 2.59230E+03
 2.57800E+03
 2.58340E+03
 2.62630E+03
 2.62630E+03
 2.65090E+03
 2.68340E+03
 2.68900E+03
 2.76270E+03
 2.83100E+03
 2.93590E+03
 3.09090E+03
 3.28330E+03
 3.52640E+03
 3.66050E+03
 3.74120E+03
 3.73760E+03
 3.61290E+03
 3.42800E+03
 3.24630E+03
 3.16000E+03
 3.04270E+03
 2.93990E+03
 2.91280E+03
 2.86190E+03
 2.80400E+03
 2.77470E+03
 2.73200E+03
 2.71570E+03
 2.67930E+03
 2.64860E+03
 2.63590E+03
 2.60260E+03
 2.58430E+03
 2.56420E+03
 2.54340E+03
 2.52840E+03
 2.53250E+03
 2.51390E+03
 2.50250E+03
 2.49890E+03
 2.48300E+03
 2.48310E+03
 2.49450E+03
 2.45980E+03
 2.47080E+03
 2.47670E+03
 2.45620E+03
 2.46320E+03
 2.45180E+03
 2.45920E+03
 2.45740E+03
 2.46120E+03
 2.44270E+03
 2.45490E+03
 2.45240E+03
 2.45070E+03
 2.45500E+03
 2.43200E+03
 2.44010E+03
 2.40860E+03
 2.41720E+03
 2.38620E+03
 2.38900E+03
 2.38060E+03
 2.36300E+03
 2.36170E+03
 2.37970E+03
 2.37570E+03
 2.36010E+03
 2.36390E+03
 2.34780E+03
 2.35330E+03
 2.32910E+03
 2.33700E+03
 2.34310E+03
 2.32810E+03
 2.34790E+03
 2.31570E+03
 2.31870E+03
 2.31990E+03
 2.30400E+03
 2.28040E+03
 2.27700E+03
 2.30020E+03
 2.28790E+03
 2.26190E+03
 2.25000E+03
 2.24890E+03
 2.24170E+03
 2.23030E+03
 2.23260E+03
 2.23060E+03
 2.22480E+03
 2.23730E+03
 2.21710E+03
 2.21800E+03
 2.23220E+03
 2.22210E+03
 2.22610E+03
 2.19930E+03
 2.20150E+03
 2.21800E+03
 2.21730E+03
 2.18710E+03
 2.17940E+03
 2.18870E+03
 2.16450E+03
 2.18330E+03
 2.16830E+03
 2.17590E+03
 2.16740E+03
 2.15780E+03
 2.15360E+03
 2.18020E+03
 2.15250E+03
 2.16770E+03
 2.16220E+03
 2.18430E+03
 2.16560E+03
 2.18790E+03
 2.17980E+03
 2.19240E+03
 2.20640E+03
 2.20710E+03
 2.20110E+03
 2.21450E+03
 2.21830E+03
 2.23630E+03
 2.23440E+03
 2.25180E+03
 2.25410E+03
 2.28860E+03
 2.28780E+03
 2.28350E+03
 2.33390E+03
 2.34500E+03
 2.34530E+03
 2.38910E+03
 2.39880E+03
 2.43230E+03
 2.47100E+03
 2.51620E+03
 2.57780E+03
 2.62390E+03
 2.72690E+03
 2.74680E+03
 2.84170E+03
 2.91470E+03
 3.01120E+03
 3.14870E+03
 3.32310E+03
 3.46050E+03
 3.66150E+03
 3.90810E+03
 4.17540E+03
 4.51700E+03
 4.89350E+03
 5.36850E+03
 5.88770E+03
 6.53840E+03
 7.30870E+03
 8.26880E+03
 9.32900E+03
 1.05992E+04
 1.19231E+04
 1.35241E+04
 1.50127E+04
 1.64121E+04
 1.73720E+04
 1.79922E+04
 1.81070E+04
 1.78094E+04
 1.72449E+04
 1.63168E+04
 1.52785E+04
 1.42182E+04
 1.31183E+04
 1.22173E+04
 1.12845E+04
 1.05091E+04
 9.81010E+03
 9.16580E+03
 8.57490E+03
 8.11740E+03
 7.69920E+03
 7.30720E+03
 6.93250E+03
 6.62800E+03
 6.36320E+03
 6.11150E+03
 5.88080E+03
 5.68340E+03
 5.53390E+03
 5.36160E+03
 5.22100E+03
 5.05310E+03
 4.97410E+03
 4.79510E+03
 4.71480E+03
 4.62980E+03
 4.53080E+03
 4.43990E+03
 4.38330E+03
 4.26080E+03
 4.22000E+03
 4.12880E+03
 4.06790E+03
 4.01700E+03
 3.92000E+03
 3.89730E+03
 3.85660E+03
 3.81800E+03
 3.77540E+03
 3.73420E+03
 3.65910E+03
 3.63720E+03
 3.60170E+03
 3.55080E+03
 3.50200E+03
 3.47130E+03
 3.46270E+03
 3.39700E+03
 3.38560E+03
 3.37670E+03
 3.37350E+03
 3.30640E+03
 3.28440E+03
 3.28260E+03
 3.25370E+03
 3.21430E+03
 3.19150E+03
 3.19570E+03
 3.18500E+03
 3.16890E+03
 3.15360E+03
 3.12920E+03
 3.12780E+03
 3.09250E+03
 3.07800E+03
 3.09360E+03
 3.04080E+03
 3.03190E+03
 3.02850E+03
 3.00930E+03
 3.00860E+03
 2.98770E+03
 2.97750E+03
 2.96440E+03
 2.93480E+03
 2.93110E+03
 2.93550E+03
 2.91160E+03
 2.91090E+03
 2.87140E+03
 2.89430E+03
 2.87470E+03
 2.86930E+03
 2.86810E+03
 2.87530E+03
 2.85540E+03
 2.83680E+03
 2.83610E+03
 2.81860E+03
 2.79800E+03
 2.82860E+03
 2.81750E+03
 2.81450E+03
 2.79050E+03
 2.79360E+03
 2.78830E+03
 2.78820E+03
 2.78170E+03
 2.79550E+03
 2.76510E+03
 2.77150E+03
 2.76190E+03
 2.77180E+03
 2.75080E+03
 2.75730E+03
 2.74300E+03
 2.77620E+03
 2.74060E+03
 2.73760E+03
 2.74250E+03
 2.75310E+03
 2.74540E+03
 2.73610E+03
 2.72430E+03
 2.70230E+03
 2.71410E+03
 2.71490E+03
 2.72620E+03
 2.71150E+03
 2.71760E+03
 2.73140E+03
 2.75420E+03
 2.76510E+03
 2.75540E+03
 2.78200E+03
 2.85730E+03
 2.84810E+03
 2.89340E+03
 2.92810E+03
 2.97060E+03
 2.99590E+03
 2.98690E+03
 2.98300E+03
 2.97060E+03
 2.96100E+03
 2.91570E+03
 2.90630E+03
 2.89230E+03
 2.86310E+03
 2.84950E+03
 2.84170E+03
 2.81000E+03
 2.80510E+03
 2.79390E+03
 2.77300E+03
 2.77370E+03
 2.75180E+03
 2.73350E+03
 2.75140E+03
 2.73700E+03
 2.71530E+03
 2.69410E+03
 2.73640E+03
 2.70990E+03
 2.68160E+03
 2.71690E+03
 2.68640E+03
 2.71700E+03
 2.71660E+03
 2.68900E+03
 2.71880E+03
 2.72010E+03
 2.73530E+03
 2.71070E+03
 2.72240E+03
 2.70130E+03
 2.67520E+03
 2.71450E+03
 2.70150E+03
 2.67690E+03
 2.68570E+03
 2.67560E+03
 2.64940E+03
 2.62840E+03
 2.63150E+03
 2.63010E+03
 2.61750E+03
 2.60960E+03
 2.60120E+03
 2.60560E+03
 2.61030E+03
 2.59990E+03
 2.63030E+03
 2.59930E+03
 2.59690E+03
 2.59260E+03
 2.58560E+03
 2.59250E+03
 2.57610E+03
 2.59790E+03
 2.59600E+03
 2.58360E+03
 2.59140E+03
 2.56850E+03
 2.56710E+03
 2.57650E+03
 2.55480E+03
 2.56550E+03
 2.58040E+03
 2.58010E+03
 2.59800E+03
 2.59130E+03
 2.58110E+03
 2.59020E+03
 2.56140E+03
 2.57940E+03
 2.55970E+03
 2.57930E+03
 2.57470E+03
 2.56850E+03
 2.54900E+03
 2.55390E+03
 2.55810E+03
 2.54790E+03
 2.53830E+03
 2.53250E+03
 2.52340E+03
 2.52580E+03
 2.54950E+03
 2.51390E+03
 2.50350E+03
 2.50970E+03
 2.51830E+03
 2.52510E+03
 2.50880E+03
 2.48870E+03
 2.49060E+03
 2.47730E+03
 2.49540E+03
 2.49240E+03
 2.49110E+03
 2.46530E+03
 2.47370E+03
 2.47590E+03
 2.46950E+03
 2.46500E+03
 2.44000E+03
 2.44780E+03
 2.44900E+03
 2.45320E+03
 2.43960E+03
 2.43200E+03
 2.43500E+03
 2.43900E+03
 2.43570E+03
 2.41270E+03
 2.43760E+03
 2.41310E+03
 2.43000E+03
 2.40810E+03
 2.40770E+03
 2.41690E+03
 2.40000E+03
 2.39020E+03
 2.40530E+03
 2.39350E+03
 2.40820E+03
 2.37380E+03
 2.39740E+03
 2.38380E+03
 2.36240E+03
 2.39400E+03
 2.38320E+03
 2.39900E+03
 2.38130E+03
 2.37670E+03
 2.38270E+03
 2.37320E+03
 2.36860E+03
 2.38480E+03
 2.36570E+03
 2.39010E+03
 2.36130E+03
 2.36900E+03
 2.35140E+03
 2.35510E+03
 2.36360E+03
 2.35330E+03
 2.36950E+03
 2.35580E+03
 2.35530E+03
 2.37070E+03
 2.33460E+03
 2.37040E+03
 2.36530E+03
 2.36220E+03
 2.35060E+03
 2.36290E+03
 2.35210E+03
 2.36820E+03
 2.33930E+03
 2.34410E+03
 2.34290E+03
 2.32780E+03
 2.34150E+03
 2.34730E+03
 2.35170E+03
 2.34980E+03
 2.36220E+03
 2.35050E+03
 2.36320E+03
 2.33750E+03
 2.34080E+03
 2.34950E+03
 2.36210E+03
 2.35490E+03
 2.35350E+03
 2.35050E+03
 2.35540E+03
 2.36280E+03
 2.34560E+03
 2.37220E+03
 2.33900E+03
 2.35690E+03
 2.34410E+03
 2.35810E+03
 2.36540E+03
 2.34820E+03
 2.36980E+03
 2.35440E+03
 2.35920E+03
 2.35270E+03
 2.33760E+03
 2.35810E+03
 2.35250E+03
 2.36770E+03
 2.36140E+03
 2.37480E+03
 2.35280E+03
 2.35370E+03
 2.36960E+03
 2.35840E+03
 2.34630E+03
 2.35210E+03
 2.36290E+03
 2.35230E+03
 2.34130E+03
 2.33680E+03
 2.33690E+03
 2.33010E+03
 2.34160E+03
 2.34380E+03
 2.34380E+03
 2.34430E+03
 2.37130E+03
 2.32610E+03
 2.33750E+03
 2.33000E+03
 2.34090E+03
 2.35370E+03
 2.33020E+03
 2.32330E+03
 2.31600E+03
 2.35020E+03
 2.33400E+03
 2.35420E+03
 2.33590E+03
 2.34540E+03
 2.34240E+03
 2.35600E+03
 2.34950E+03
 2.34440E+03
 2.36110E+03
 2.35340E+03
 2.36730E+03
 2.34370E+03
 2.35460E+03
 2.34030E+03
 2.36320E+03
 2.37320E+03
 2.34200E+03
 2.36000E+03
 2.34350E+03
 2.34630E+03
 2.35040E+03
 2.36930E+03
 2.34820E+03
 2.34360E+03
 2.35290E+03
 2.33730E+03
 2.35190E+03
 2.33920E+03
 2.34550E+03
 2.33470E+03
 2.34070E+03
 2.32410E+03
 2.33420E+03
 2.33810E+03
 2.33870E+03
 2.32630E+03
 2.33400E+03
 2.35150E+03
 2.35410E+03
 2.32750E+03
 2.35130E+03
 2.35290E+03
 2.34860E+03
 2.34220E+03
 2.35750E+03
 2.36340E+03
 2.35430E+03
 2.35150E+03
 2.34310E+03
 2.33930E+03
 2.34680E+03
 2.35750E+03
 2.35310E+03
 2.34630E+03
 2.33990E+03
 2.35170E+03
 2.35450E+03
 2.35510E+03
 2.36260E+03
 2.35480E+03
 2.35930E+03
 2.34980E+03
 2.35970E+03
 2.35510E+03
 2.37660E+03
 2.34690E+03
 2.36700E+03
 2.34860E+03
 2.34450E+03
 2.37200E+03
 2.34930E+03
 2.35560E+03
 2.34420E+03
 2.34000E+03
 2.34520E+03
 2.33570E+03
 2.34190E+03
 2.35390E+03
 2.32420E+03
 2.33430E+03
 2.34640E+03
 2.31440E+03
 2.33220E+03
 2.34700E+03
 2.33670E+03
 2.32460E+03
 2.32660E+03
 2.31790E+03
 2.30750E+03
 2.30630E+03
 2.31030E+03
 2.31100E+03
 2.32500E+03
 2.30420E+03
 2.30040E+03
 2.31610E+03
 2.29360E+03
 2.28520E+03
 2.29320E+03
 2.29180E+03
 2.30940E+03
 2.29050E+03
 2.30110E+03
 2.28450E+03
 2.29230E+03
 2.28330E+03
 2.30070E+03
 2.28300E+03
 2.30160E+03
 2.27970E+03
 2.29310E+03
 2.28660E+03
 2.28610E+03
 2.29940E+03
 2.29290E+03
 2.29930E+03
 2.29560E+03
 2.29920E+03
 2.28160E+03
 2.28150E+03
 2.28680E+03
 2.26700E+03
 2.28730E+03
 2.27910E+03
 2.28370E+03
 2.27200E+03
 2.28230E+03
 2.30050E+03
 2.28510E+03
 2.29260E+03
 2.27780E+03
 2.28430E+03
 2.28300E+03
 2.27400E+03
 2.29820E+03
 2.29680E+03
 2.28460E+03
 2.28010E+03
 2.29140E+03
 2.26530E+03
 2.27260E+03
 2.26400E+03
 2.25860E+03
 2.28000E+03
 2.27860E+03
 2.27420E+03
 2.25770E+03
 2.26400E+03
 2.27730E+03
 2.28150E+03
 2.27390E+03
 2.29290E+03
 2.27730E+03
 2.28090E+03
 2.29100E+03
 2.27940E+03
 2.27390E+03
 2.28250E+03
 2.26860E+03
 2.25810E+03
 2.27560E+03
 2.29320E+03
 2.27030E+03
 2.27700E+03
 2.27280E+03
 2.26880E+03
 2.28480E+03
 2.25980E+03
 2.27570E+03
 2.27210E+03
 2.27840E+03
 2.27440E+03
 2.26600E+03
 2.25570E+03
 2.26090E+03
 2.25380E+03
 2.25160E+03
 2.27290E+03
 2.27090E+03
 2.25930E+03
 2.25650E+03
 2.27250E+03
 2.25050E+03
 2.25110E+03
 2.24320E+03
 2.28660E+03
 2.26710E+03
 2.26840E+03
 2.26900E+03
 2.27340E+03
 2.25340E+03
 2.26210E+03
 2.26480E+03
 2.27290E+03
 2.25980E+03
 2.28890E+03
 2.27500E+03
 2.28540E+03
 2.25960E+03
 2.26540E+03
 2.26410E+03
 2.28180E+03
 2.27820E+03
 2.28160E+03
 2.26970E+03
 2.25940E+03
 2.29000E+03
 2.29570E+03
 2.29250E+03
 2.28910E+03
 2.29920E+03
 2.28100E+03
 2.31540E+03
 2.31700E+03
 2.31730E+03
 2.32510E+03
 2.34190E+03
 2.36010E+03
 2.36660E+03
 2.38100E+03
 2.37820E+03
 2.40400E+03
 2.42340E+03
 2.44320E+03
 2.47660E+03
 2.52860E+03
 2.55860E+03
 2.59820E+03
 2.64750E+03
 2.69730E+03
 2.69730E+03
 2.73470E+03
 2.81050E+03
 2.85720E+03
 2.90320E+03
 2.91800E+03
 2.96080E+03
 3.02120E+03
 3.08440E+03
 3.14290E+03
 3.17040E+03
 3.21240E+03
 3.20470E+03
 3.23070E+03
 3.24020E+03
 3.23980E+03
 3.23480E+03
 3.25000E+03
 3.18170E+03
 3.20440E+03
 3.19230E+03
 3.18480E+03
 3.21280E+03
 3.17810E+03
 3.16600E+03
 3.20690E+03
 3.18410E+03
 3.17490E+03
 3.17290E+03
 3.16750E+03
 3.18600E+03
 3.18010E+03
 3.19270E+03
 3.21020E+03
 3.18260E+03
 3.19590E+03
 3.20190E+03
 3.19860E+03
 3.20110E+03
 3.19610E+03
 3.20280E+03
 3.20290E+03
 3.20440E+03
 3.20000E+03
 3.21740E+03
 3.19250E+03
 3.23330E+03
 3.21230E+03
 3.20200E+03
 3.24610E+03
 3.22640E+03
 3.22940E+03
 3.21590E+03
 3.25310E+03
 3.23180E+03
 3.23940E+03
 3.23190E+03
 3.21540E+03
 3.26560E+03
 3.25530E+03
 3.25120E+03
 3.26840E+03
 3.24900E+03
 3.24850E+03
 3.25950E+03
 3.26040E+03
 3.26010E+03
 3.26650E+03
 3.24200E+03
 3.24610E+03
 3.22780E+03
 3.21760E+03
 3.18940E+03
 3.22100E+03
 3.20970E+03
 3.13600E+03
 3.17350E+03
 3.16250E+03
 3.11470E+03
 3.07320E+03
 3.05590E+03
 3.03740E+03
 2.97860E+03
 2.95780E+03
 2.85350E+03
 2.82930E+03
 2.78400E+03
 2.74300E+03
 2.70870E+03
 2.63780E+03
 2.64780E+03
 2.59600E+03
 2.57630E+03
 2.55490E+03
 2.55120E+03
 2.51520E+03
 2.49440E+03
 2.47840E+03
 2.47810E+03
 2.45850E+03
 2.45740E+03
 2.43360E+03
 2.42030E+03
 2.38780E+03
 2.41360E+03
 2.39760E+03
 2.37070E+03
 2.37060E+03
 2.34930E+03
 2.35970E+03
 2.35140E+03
 2.32830E+03
 2.34170E+03
 2.32330E+03
 2.31810E+03
 2.29800E+03
 2.30540E+03
 2.28840E+03
 2.29250E+03
 2.28320E+03
 2.26540E+03
 2.26830E+03
 2.27050E+03
 2.24870E+03
 2.24820E+03
 2.24170E+03
 2.22900E+03
 2.21430E+03
 2.21250E+03
 2.21760E+03
 2.18840E+03
 2.19500E+03
 2.20000E+03
 2.19260E+03
 2.17280E+03
 2.18900E+03
 2.15640E+03
 2.16520E+03
 2.13790E+03
 2.16130E+03
 2.14250E+03
 2.14420E+03
 2.13450E+03
 2.11700E+03
 2.12440E+03
 2.13130E+03
 2.11760E+03
 2.10750E+03
 2.09730E+03
 2.07890E+03
 2.09990E+03
 2.08450E+03
 2.09470E+03
 2.09300E+03
 2.08360E+03
 2.07040E+03
 2.08680E+03
 2.05870E+03
 2.07230E+03
 2.06460E+03
 2.06850E+03
 2.05950E+03
 2.06270E+03
 2.06960E+03
 2.05820E+03
 2.06670E+03
 2.05870E+03
 2.05070E+03
 2.04670E+03
 2.05100E+03
 2.05810E+03
 2.05500E+03
 2.04410E+03
 2.05070E+03
 2.05120E+03
 2.05040E+03
 2.05990E+03
 2.04760E+03
 2.04780E+03
 2.04420E+03
 2.04930E+03
 2.03750E+03
 2.03950E+03
 2.05750E+03
 2.03600E+03
 2.03680E+03
 2.04170E+03
 2.04930E+03
 2.03150E+03
 2.04930E+03
 2.03180E+03
 2.03900E+03
 2.02460E+03
 2.03220E+03
 2.03000E+03
 2.02800E+03
 2.03700E+03
 2.02820E+03
 2.03360E+03
 2.04060E+03
 2.02570E+03
 2.02200E+03
 2.02790E+03
 2.03650E+03
 2.02940E+03
 2.02580E+03
 2.04940E+03
 2.02980E+03
 2.02430E+03
 2.03670E+03
 2.02990E+03
 2.02530E+03
 2.02180E+03
 2.03220E+03
 2.01990E+03
 2.01410E+03
 2.02210E+03
 2.01220E+03
 2.00530E+03
 2.01620E+03
 2.02320E+03
 2.01320E+03
 2.03550E+03
 2.02550E+03
 2.03820E+03
 2.01110E+03
 2.01930E+03
 2.01300E+03
 2.04290E+03
 2.01790E+03
 2.02780E+03
 2.01980E+03
 2.01280E+03
 2.01620E+03
 2.01160E+03
 2.02200E+03
 2.00020E+03
 2.02440E+03
 2.02150E+03
 2.01930E+03
 2.01970E+03
 2.00640E+03
 2.00690E+03
 2.01830E+03
 2.02700E+03
 2.02160E+03
 2.02060E+03
 2.01570E+03
 2.00130E+03
 2.02490E+03
 2.02000E+03
 2.02680E+03
 2.01920E+03
