 1.58200E+03
 1.57950E+03
 1.57880E+03
 1.58000E+03
 1.57740E+03
 1.57920E+03
 1.58100E+03
 1.58010E+03
 1.58080E+03
 1.58050E+03
 1.57920E+03
 1.58070E+03
 1.57820E+03
 1.58160E+03
 1.58160E+03
 1.57850E+03
 1.58040E+03
 1.58080E+03
 1.57960E+03
 1.57970E+03
 1.58040E+03
 1.58070E+03
 1.58200E+03
 1.57860E+03
 1.57880E+03
 1.58010E+03
 1.57970E+03
 1.58020E+03
 1.57900E+03
 1.58070E+03
 1.58030E+03
 1.57900E+03
 1.57900E+03
 1.57880E+03
 1.57980E+03
 1.58140E+03
 1.58210E+03
 1.57990E+03
 1.58070E+03
 1.57970E+03
 1.58160E+03
 1.58000E+03
 1.58090E+03
 1.57800E+03
 1.58130E+03
 1.58120E+03
 1.57940E+03
 1.57800E+03
 1.58090E+03
 1.58020E+03
 1.58320E+03
 1.57950E+03
 1.58030E+03
 1.58150E+03
 1.58270E+03
 1.58030E+03
 1.57760E+03
 1.58090E+03
 1.57920E+03
 1.58120E+03
 1.58170E+03
 1.58440E+03
 1.58150E+03
 1.58070E+03
 1.57880E+03
 1.58120E+03
 1.58190E+03
 1.58320E+03
 1.58240E+03
 1.57940E+03
 1.58080E+03
 1.58300E+03
 1.57930E+03
 1.58010E+03
 1.58280E+03
 1.58380E+03
 1.60140E+03
 1.66910E+03
 1.76970E+03
 1.74340E+03
 1.63680E+03
 1.59020E+03
 1.58260E+03
 1.58190E+03
 1.57940E+03
 1.57980E+03
 1.58160E+03
 1.58250E+03
 1.58140E+03
 1.58280E+03
 1.58160E+03
 1.58280E+03
 1.58030E+03
 1.58000E+03
 1.58350E+03
 1.58230E+03
 1.58130E+03
 1.58200E+03
 1.58290E+03
 1.58140E+03
 1.58110E+03
 1.58220E+03
 1.58310E+03
 1.58100E+03
 1.58170E+03
 1.58420E+03
 1.57980E+03
 1.58110E+03
 1.58160E+03
 1.58050E+03
 1.58080E+03
 1.57840E+03
 1.58070E+03
 1.58070E+03
 1.58210E+03
 1.58120E+03
 1.57920E+03
 1.58080E+03
 1.58110E+03
 1.58150E+03
 1.58020E+03
 1.58210E+03
 1.58300E+03
 1.57980E+03
 1.58090E+03
 1.58060E+03
 1.58090E+03
 1.58010E+03
 1.58060E+03
 1.58180E+03
 1.57900E+03
 1.58060E+03
 1.57970E+03
 1.58250E+03
 1.58040E+03
 1.58230E+03
 1.58030E+03
 1.58020E+03
 1.57890E+03
 1.58020E+03
 1.58410E+03
 1.58080E+03
 1.58240E+03
 1.58130E+03
 1.58090E+03
 1.58270E+03
 1.58250E+03
 1.58280E+03
 1.58470E+03
 1.58300E+03
 1.58630E+03
 1.59050E+03
 1.59480E+03
 1.60330E+03
 1.60500E+03
 1.62030E+03
 1.62480E+03
 1.64090E+03
 1.65660E+03
 1.68010E+03
 1.70340E+03
 1.73550E+03
 1.76890E+03
 1.80750E+03
 1.84510E+03
 1.89740E+03
 1.95930E+03
 2.01000E+03
 2.08260E+03
 2.15080E+03
 2.22950E+03
 2.32580E+03
 2.41010E+03
 2.51710E+03
 2.62830E+03
 2.69190E+03
 2.77770E+03
 2.91050E+03
 2.93500E+03
 3.03080E+03
 3.08670E+03
 3.14480E+03
 3.16030E+03
 3.20100E+03
 3.19680E+03
 3.21870E+03
 3.18940E+03
 3.19450E+03
 3.20650E+03
 3.23480E+03
 3.23040E+03
 3.23240E+03
 3.22970E+03
 3.21830E+03
 3.27480E+03
 3.27340E+03
 3.24480E+03
 3.28240E+03
 3.29430E+03
 3.29640E+03
 3.28590E+03
 3.29820E+03
 3.29030E+03
 3.31110E+03
 3.31680E+03
 3.32860E+03
 3.29740E+03
 3.29590E+03
 3.30630E+03
 3.31790E+03
 3.29890E+03
 3.28550E+03
 3.29230E+03
 3.22910E+03
 3.26610E+03
 3.23990E+03
 3.22170E+03
 3.24610E+03
 3.21670E+03
 3.24340E+03
 3.21960E+03
 3.21560E+03
 3.21800E+03
 3.23320E+03
 3.23730E+03
 3.18060E+03
 3.19140E+03
 3.23340E+03
 3.21560E+03
 3.21300E+03
 3.24310E+03
 3.20120E+03
 3.21870E+03
 3.23300E+03
 3.23330E+03
 3.20890E+03
 3.19320E+03
 3.22460E+03
 3.22050E+03
 3.20750E+03
 3.19900E+03
 3.19790E+03
 3.20360E+03
 3.21790E+03
 3.21390E+03
 3.21590E+03
 3.15970E+03
 3.18240E+03
 3.19010E+03
 3.21410E+03
 3.20460E+03
 3.17900E+03
 3.21360E+03
 3.22790E+03
 3.19790E+03
 3.18920E+03
 3.17690E+03
 3.17770E+03
 3.20490E+03
 3.20390E+03
 3.20700E+03
 3.18720E+03
 3.16620E+03
 3.21100E+03
 3.16650E+03
 3.19000E+03
 3.16740E+03
 3.13820E+03
 3.18690E+03
 3.16390E+03
 3.15430E+03
 3.15400E+03
 3.17560E+03
 3.16570E+03
 3.15050E+03
 3.14340E+03
 3.15840E+03
 3.12400E+03
 3.13620E+03
 3.16600E+03
 3.15370E+03
 3.13110E+03
 3.12200E+03
 3.08630E+03
 3.08180E+03
 3.11820E+03
 3.08880E+03
 3.06760E+03
 3.09900E+03
 3.05770E+03
 3.08260E+03
 3.10380E+03
 3.08800E+03
 3.06310E+03
 3.07890E+03
 3.03810E+03
 3.03930E+03
 3.07290E+03
 3.07480E+03
 3.06830E+03
 3.07830E+03
 3.07510E+03
 3.08320E+03
 3.07330E+03
 3.06570E+03
 3.06190E+03
 3.05880E+03
 3.05570E+03
 3.05470E+03
 3.06310E+03
 3.05730E+03
 3.06200E+03
 3.05740E+03
 3.06660E+03
 3.06910E+03
 3.07560E+03
 3.06390E+03
 3.05800E+03
 3.05170E+03
 3.05490E+03
 3.06190E+03
 3.04790E+03
 3.04250E+03
 3.02860E+03
 3.02870E+03
 3.03950E+03
 3.01960E+03
 3.02190E+03
 3.00300E+03
 3.02950E+03
 3.02290E+03
 3.03970E+03
 3.04630E+03
 3.02920E+03
 3.03170E+03
 3.00080E+03
 3.02220E+03
 3.01380E+03
 3.03020E+03
 3.03430E+03
 3.03430E+03
 3.02230E+03
 3.02620E+03
 3.02240E+03
 3.01800E+03
 3.01800E+03
 3.04410E+03
 3.02370E+03
 3.02360E+03
 3.04580E+03
 3.04070E+03
 3.04260E+03
 3.03910E+03
 3.06960E+03
 3.04600E+03
 3.04900E+03
 3.05270E+03
 3.07660E+03
 3.07860E+03
 3.06740E+03
 3.06060E+03
 3.08180E+03
 3.09960E+03
 3.10840E+03
 3.12630E+03
 3.14050E+03
 3.14530E+03
 3.16540E+03
 3.16640E+03
 3.19580E+03
 3.16310E+03
 3.16750E+03
 3.15340E+03
 3.15380E+03
 3.10830E+03
 3.09940E+03
 3.10330E+03
 3.11560E+03
 3.11130E+03
 3.09190E+03
 3.08520E+03
 3.07390E+03
 3.08390E+03
 3.06060E+03
 3.03740E+03
 3.04560E+03
 3.04760E+03
 3.05110E+03
 3.03100E+03
 3.04340E+03
 3.03760E+03
 3.03650E+03
 3.03120E+03
 3.04370E+03
 3.06130E+03
 3.04140E+03
 3.04710E+03
 3.04960E+03
 3.04290E+03
 3.03940E+03
 3.04940E+03
 3.05010E+03
 3.02050E+03
 3.02220E+03
 3.02220E+03
 3.01870E+03
 3.02680E+03
 3.02010E+03
 3.01710E+03
 3.01670E+03
 3.03740E+03
 3.01180E+03
 3.03010E+03
 3.00550E+03
 3.02530E+03
 3.01470E+03
 3.04460E+03
 3.00720E+03
 3.03520E+03
 3.02280E+03
 3.02300E+03
 2.98240E+03
 3.00400E+03
 3.01770E+03
 3.01120E+03
 3.00830E+03
 3.01390E+03
 3.04900E+03
 3.03270E+03
 3.03380E+03
 3.03540E+03
 3.04000E+03
 3.02990E+03
 3.04870E+03
 3.06990E+03
 3.05470E+03
 3.07280E+03
 3.08070E+03
 3.08750E+03
 3.05950E+03
 3.05880E+03
 3.10080E+03
 3.09580E+03
 3.08140E+03
 3.07480E+03
 3.10730E+03
 3.11960E+03
 3.12320E+03
 3.12990E+03
 3.09450E+03
 3.11190E+03
 3.13530E+03
 3.14130E+03
 3.14970E+03
 3.14330E+03
 3.15960E+03
 3.15650E+03
 3.20550E+03
 3.21720E+03
 3.22100E+03
 3.25000E+03
 3.30240E+03
 3.29130E+03
 3.33060E+03
 3.31700E+03
 3.39690E+03
 3.41730E+03
 3.39390E+03
 3.41340E+03
 3.37780E+03
 3.38550E+03
 3.35930E+03
 3.31500E+03
 3.27480E+03
 3.24880E+03
 3.20230E+03
 3.19740E+03
 3.15610E+03
 3.15280E+03
 3.18610E+03
 3.14440E+03
 3.14640E+03
 3.14620E+03
 3.12920E+03
 3.13580E+03
 3.10990E+03
 3.08730E+03
 3.06410E+03
 3.06120E+03
 3.06400E+03
 3.04890E+03
 3.04010E+03
 3.06080E+03
 3.02860E+03
 3.02880E+03
 3.03950E+03
 3.00610E+03
 3.01600E+03
 2.98840E+03
 2.99250E+03
 2.99320E+03
 2.94810E+03
 2.96040E+03
 2.96120E+03
 2.97340E+03
 2.98580E+03
 2.95050E+03
 2.97870E+03
 2.98410E+03
 2.95070E+03
 2.95460E+03
 2.95440E+03
 2.95420E+03
 2.94440E+03
 2.93770E+03
 2.95160E+03
 2.94800E+03
 2.96490E+03
 2.93910E+03
 2.96340E+03
 2.94070E+03
 2.95410E+03
 2.94220E+03
 2.94290E+03
 2.93460E+03
 2.94130E+03
 2.93430E+03
 2.94790E+03
 2.91760E+03
 2.93150E+03
 2.92990E+03
 2.90080E+03
 2.92720E+03
 2.92670E+03
 2.91840E+03
 2.92190E+03
 2.91490E+03
 2.90200E+03
 2.91480E+03
 2.90690E+03
 2.91760E+03
 2.92650E+03
 2.90890E+03
 2.92060E+03
 2.91780E+03
 2.93800E+03
 2.91880E+03
 2.95160E+03
 2.93960E+03
 2.94380E+03
 2.94240E+03
 2.95890E+03
 2.99010E+03
 2.99200E+03
 2.97150E+03
 3.02690E+03
 3.02450E+03
 3.03620E+03
 3.06550E+03
 3.07590E+03
 3.10110E+03
 3.14820E+03
 3.16390E+03
 3.20950E+03
 3.24920E+03
 3.30830E+03
 3.34660E+03
 3.42560E+03
 3.55410E+03
 3.67230E+03
 3.90090E+03
 4.02330E+03
 4.22260E+03
 4.19780E+03
 4.11200E+03
 3.82890E+03
 3.53130E+03
 3.27480E+03
 3.11710E+03
 3.01140E+03
 2.93800E+03
 2.92430E+03
 2.89210E+03
 2.87870E+03
 2.84540E+03
 2.86390E+03
 2.87110E+03
 2.90600E+03
 2.91490E+03
 2.94640E+03
 2.98500E+03
 3.06620E+03
 3.16470E+03
 3.29510E+03
 3.48240E+03
 3.75540E+03
 4.08780E+03
 4.56900E+03
 5.08690E+03
 5.44710E+03
 5.62790E+03
 5.44800E+03
 5.05730E+03
 4.60490E+03
 4.24190E+03
 3.92250E+03
 3.68160E+03
 3.54140E+03
 3.37000E+03
 3.29700E+03
 3.19800E+03
 3.11350E+03
 3.07830E+03
 3.00950E+03
 2.98370E+03
 2.94020E+03
 2.89830E+03
 2.86860E+03
 2.83090E+03
 2.78090E+03
 2.77330E+03
 2.77030E+03
 2.73690E+03
 2.70120E+03
 2.71080E+03
 2.71990E+03
 2.70830E+03
 2.69340E+03
 2.68810E+03
 2.69800E+03
 2.67850E+03
 2.69450E+03
 2.68550E+03
 2.68070E+03
 2.64850E+03
 2.66430E+03
 2.67000E+03
 2.67700E+03
 2.65570E+03
 2.67170E+03
 2.66420E+03
 2.68950E+03
 2.68110E+03
 2.67670E+03
 2.68930E+03
 2.69050E+03
 2.66770E+03
 2.65540E+03
 2.64790E+03
 2.64670E+03
 2.63620E+03
 2.62000E+03
 2.63610E+03
 2.62670E+03
 2.62750E+03
 2.64560E+03
 2.64000E+03
 2.62390E+03
 2.63050E+03
 2.64930E+03
 2.62760E+03
 2.63120E+03
 2.62640E+03
 2.63020E+03
 2.62380E+03
 2.62370E+03
 2.63250E+03
 2.58110E+03
 2.59380E+03
 2.56960E+03
 2.55440E+03
 2.55460E+03
 2.53910E+03
 2.56250E+03
 2.51040E+03
 2.49220E+03
 2.48770E+03
 2.48740E+03
 2.48910E+03
 2.46880E+03
 2.47340E+03
 2.47990E+03
 2.45170E+03
 2.43270E+03
 2.43160E+03
 2.41800E+03
 2.43440E+03
 2.40670E+03
 2.40840E+03
 2.39490E+03
 2.36890E+03
 2.35720E+03
 2.35400E+03
 2.33740E+03
 2.32110E+03
 2.32150E+03
 2.32130E+03
 2.32190E+03
 2.31090E+03
 2.32030E+03
 2.31850E+03
 2.30960E+03
 2.31710E+03
 2.31450E+03
 2.31390E+03
 2.31740E+03
 2.31850E+03
 2.33350E+03
 2.34860E+03
 2.31820E+03
 2.34510E+03
 2.34080E+03
 2.34300E+03
 2.35040E+03
 2.35550E+03
 2.37760E+03
 2.37980E+03
 2.37710E+03
 2.41570E+03
 2.40900E+03
 2.43610E+03
 2.43430E+03
 2.47370E+03
 2.45350E+03
 2.46940E+03
 2.50940E+03
 2.51700E+03
 2.55430E+03
 2.58480E+03
 2.62600E+03
 2.64910E+03
 2.70800E+03
 2.75220E+03
 2.85080E+03
 2.88470E+03
 2.96770E+03
 3.06740E+03
 3.14020E+03
 3.30450E+03
 3.44570E+03
 3.61150E+03
 3.82080E+03
 4.05890E+03
 4.33680E+03
 4.65890E+03
 5.04190E+03
 5.47980E+03
 6.03520E+03
 6.73140E+03
 7.48430E+03
 8.44850E+03
 9.49550E+03
 1.08255E+04
 1.22205E+04
 1.38149E+04
 1.53201E+04
 1.66906E+04
 1.78192E+04
 1.83280E+04
 1.86412E+04
 1.84278E+04
 1.77385E+04
 1.67376E+04
 1.56746E+04
 1.45477E+04
 1.35035E+04
 1.25787E+04
 1.15874E+04
 1.07991E+04
 1.00986E+04
 9.49200E+03
 8.86040E+03
 8.31860E+03
 7.94090E+03
 7.53270E+03
 7.17030E+03
 6.87740E+03
 6.59710E+03
 6.34360E+03
 6.10970E+03
 5.90490E+03
 5.72320E+03
 5.53300E+03
 5.41500E+03
 5.22190E+03
 5.15080E+03
 5.03310E+03
 4.93590E+03
 4.76910E+03
 4.72190E+03
 4.64430E+03
 4.56210E+03
 4.47760E+03
 4.37300E+03
 4.31920E+03
 4.21320E+03
 4.20450E+03
 4.14630E+03
 4.12410E+03
 4.03090E+03
 3.96670E+03
 3.95360E+03
 3.91320E+03
 3.86640E+03
 3.75420E+03
 3.79730E+03
 3.73610E+03
 3.70450E+03
 3.64910E+03
 3.65380E+03
 3.61260E+03
 3.61990E+03
 3.55010E+03
 3.53750E+03
 3.51490E+03
 3.46640E+03
 3.51190E+03
 3.48480E+03
 3.45960E+03
 3.44260E+03
 3.38620E+03
 3.36570E+03
 3.36960E+03
 3.35100E+03
 3.34750E+03
 3.32820E+03
 3.31200E+03
 3.29210E+03
 3.26020E+03
 3.22320E+03
 3.22780E+03
 3.22720E+03
 3.20030E+03
 3.16800E+03
 3.16580E+03
 3.16680E+03
 3.11630E+03
 3.13450E+03
 3.11000E+03
 3.13260E+03
 3.08610E+03
 3.11070E+03
 3.08970E+03
 3.06050E+03
 3.06940E+03
 3.05050E+03
 3.05990E+03
 3.05030E+03
 3.05000E+03
 3.03670E+03
 3.02660E+03
 3.04110E+03
 2.99040E+03
 3.00540E+03
 3.00640E+03
 3.01910E+03
 3.01850E+03
 2.97980E+03
 2.99690E+03
 2.98470E+03
 2.98900E+03
 2.99200E+03
 2.97160E+03
 2.96840E+03
 2.98110E+03
 2.96680E+03
 2.97720E+03
 2.94360E+03
 2.93050E+03
 2.92790E+03
 2.90320E+03
 2.89140E+03
 2.88720E+03
 2.87500E+03
 2.87910E+03
 2.87560E+03
 2.87530E+03
 2.86620E+03
 2.86790E+03
 2.86240E+03
 2.88660E+03
 2.87540E+03
 2.87750E+03
 2.88050E+03
 2.86000E+03
 2.90190E+03
 2.92160E+03
 2.92730E+03
 2.96400E+03
 3.01010E+03
 3.05740E+03
 3.08380E+03
 3.08920E+03
 3.14130E+03
 3.14060E+03
 3.12800E+03
 3.10870E+03
 3.07670E+03
 3.08280E+03
 3.08460E+03
 3.03990E+03
 3.00740E+03
 3.01130E+03
 2.97260E+03
 2.97670E+03
 2.94860E+03
 2.93730E+03
 2.92050E+03
 2.90270E+03
 2.90310E+03
 2.87300E+03
 2.86790E+03
 2.85840E+03
 2.87110E+03
 2.87390E+03
 2.87810E+03
 2.86160E+03
 2.85440E+03
 2.85260E+03
 2.83470E+03
 2.83390E+03
 2.84730E+03
 2.86360E+03
 2.85470E+03
 2.86080E+03
 2.83610E+03
 2.83830E+03
 2.81270E+03
 2.83560E+03
 2.79740E+03
 2.78740E+03
 2.79620E+03
 2.76450E+03
 2.77680E+03
 2.76650E+03
 2.74070E+03
 2.74470E+03
 2.74990E+03
 2.72580E+03
 2.72380E+03
 2.75970E+03
 2.72480E+03
 2.70910E+03
 2.70900E+03
 2.69350E+03
 2.72050E+03
 2.71910E+03
 2.70660E+03
 2.69680E+03
 2.71250E+03
 2.71300E+03
 2.68460E+03
 2.68720E+03
 2.68340E+03
 2.72030E+03
 2.69480E+03
 2.68010E+03
 2.68720E+03
 2.70790E+03
 2.69780E+03
 2.69860E+03
 2.67120E+03
 2.68810E+03
 2.68460E+03
 2.68030E+03
 2.68430E+03
 2.69960E+03
 2.69490E+03
 2.70030E+03
 2.67530E+03
 2.68790E+03
 2.66600E+03
 2.68700E+03
 2.66660E+03
 2.67880E+03
 2.67580E+03
 2.66370E+03
 2.66380E+03
 2.63300E+03
 2.63730E+03
 2.63690E+03
 2.62560E+03
 2.63000E+03
 2.62060E+03
 2.62750E+03
 2.60050E+03
 2.61290E+03
 2.60900E+03
 2.60680E+03
 2.59790E+03
 2.61040E+03
 2.60910E+03
 2.60610E+03
 2.61050E+03
 2.61590E+03
 2.58620E+03
 2.59080E+03
 2.56880E+03
 2.57430E+03
 2.56650E+03
 2.58270E+03
 2.58400E+03
 2.56790E+03
 2.55600E+03
 2.55210E+03
 2.55380E+03
 2.54280E+03
 2.57220E+03
 2.54680E+03
 2.55380E+03
 2.53480E+03
 2.53320E+03
 2.52670E+03
 2.53190E+03
 2.54360E+03
 2.52250E+03
 2.54640E+03
 2.52070E+03
 2.52010E+03
 2.50200E+03
 2.52040E+03
 2.50050E+03
 2.50120E+03
 2.51750E+03
 2.51840E+03
 2.51190E+03
 2.49320E+03
 2.48320E+03
 2.47880E+03
 2.46810E+03
 2.47790E+03
 2.50060E+03
 2.49400E+03
 2.47870E+03
 2.49650E+03
 2.48620E+03
 2.48780E+03
 2.46030E+03
 2.48320E+03
 2.49630E+03
 2.46390E+03
 2.49180E+03
 2.47980E+03
 2.46850E+03
 2.45740E+03
 2.48680E+03
 2.46950E+03
 2.50810E+03
 2.45910E+03
 2.48190E+03
 2.48330E+03
 2.46950E+03
 2.47920E+03
 2.47920E+03
 2.47900E+03
 2.48970E+03
 2.46850E+03
 2.49000E+03
 2.50060E+03
 2.48300E+03
 2.48510E+03
 2.48410E+03
 2.49970E+03
 2.49300E+03
 2.49590E+03
 2.51020E+03
 2.48660E+03
 2.47620E+03
 2.49680E+03
 2.47960E+03
 2.49070E+03
 2.49390E+03
 2.49860E+03
 2.48830E+03
 2.48290E+03
 2.49840E+03
 2.48190E+03
 2.50180E+03
 2.48970E+03
 2.48800E+03
 2.51180E+03
 2.50200E+03
 2.48080E+03
 2.50730E+03
 2.47270E+03
 2.49320E+03
 2.48800E+03
 2.50290E+03
 2.48190E+03
 2.49250E+03
 2.49200E+03
 2.47650E+03
 2.48060E+03
 2.49720E+03
 2.47770E+03
 2.46880E+03
 2.49920E+03
 2.46690E+03
 2.47470E+03
 2.46030E+03
 2.47410E+03
 2.46850E+03
 2.46110E+03
 2.45080E+03
 2.48360E+03
 2.46130E+03
 2.45260E+03
 2.44840E+03
 2.45610E+03
 2.46450E+03
 2.46230E+03
 2.47470E+03
 2.45900E+03
 2.45520E+03
 2.46750E+03
 2.46540E+03
 2.47230E+03
 2.46770E+03
 2.48060E+03
 2.48600E+03
 2.47140E+03
 2.47330E+03
 2.48780E+03
 2.44890E+03
 2.46700E+03
 2.47260E+03
 2.46780E+03
 2.48060E+03
 2.46620E+03
 2.45510E+03
 2.46920E+03
 2.46780E+03
 2.46560E+03
 2.47920E+03
 2.47450E+03
 2.45340E+03
 2.45050E+03
 2.44910E+03
 2.43560E+03
 2.45370E+03
 2.42660E+03
 2.45190E+03
 2.46530E+03
 2.44720E+03
 2.44890E+03
 2.44260E+03
 2.44790E+03
 2.44300E+03
 2.43360E+03
 2.44270E+03
 2.44490E+03
 2.44060E+03
 2.45240E+03
 2.44000E+03
 2.43360E+03
 2.42310E+03
 2.44280E+03
 2.46000E+03
 2.45890E+03
 2.46670E+03
 2.46420E+03
 2.47020E+03
 2.45650E+03
 2.43970E+03
 2.46780E+03
 2.46720E+03
 2.45300E+03
 2.44370E+03
 2.45650E+03
 2.46050E+03
 2.49040E+03
 2.48160E+03
 2.47110E+03
 2.47480E+03
 2.47630E+03
 2.46460E+03
 2.47130E+03
 2.46150E+03
 2.48870E+03
 2.48240E+03
 2.45430E+03
 2.45550E+03
 2.45390E+03
 2.45820E+03
 2.46470E+03
 2.45270E+03
 2.45830E+03
 2.45840E+03
 2.45340E+03
 2.46870E+03
 2.44970E+03
 2.43650E+03
 2.43700E+03
 2.42820E+03
 2.42350E+03
 2.44820E+03
 2.42070E+03
 2.42170E+03
 2.42030E+03
 2.41900E+03
 2.43130E+03
 2.40950E+03
 2.42460E+03
 2.41330E+03
 2.42550E+03
 2.40890E+03
 2.43160E+03
 2.42430E+03
 2.40180E+03
 2.37920E+03
 2.40300E+03
 2.38690E+03
 2.39540E+03
 2.39760E+03
 2.40150E+03
 2.38450E+03
 2.38820E+03
 2.38600E+03
 2.39600E+03
 2.36730E+03
 2.38520E+03
 2.38890E+03
 2.38620E+03
 2.38610E+03
 2.38750E+03
 2.40170E+03
 2.39480E+03
 2.38210E+03
 2.38400E+03
 2.39700E+03
 2.37120E+03
 2.38260E+03
 2.37770E+03
 2.38490E+03
 2.37770E+03
 2.38990E+03
 2.37570E+03
 2.37310E+03
 2.36230E+03
 2.38360E+03
 2.39160E+03
 2.38700E+03
 2.37340E+03
 2.37440E+03
 2.37850E+03
 2.38690E+03
 2.38710E+03
 2.37510E+03
 2.38560E+03
 2.38130E+03
 2.36930E+03
 2.39180E+03
 2.36470E+03
 2.37660E+03
 2.39440E+03
 2.37420E+03
 2.38140E+03
 2.36360E+03
 2.37810E+03
 2.37810E+03
 2.37700E+03
 2.37000E+03
 2.37490E+03
 2.38380E+03
 2.37060E+03
 2.35140E+03
 2.34960E+03
 2.38340E+03
 2.36010E+03
 2.37460E+03
 2.36570E+03
 2.36940E+03
 2.36460E+03
 2.37470E+03
 2.38060E+03
 2.37170E+03
 2.37240E+03
 2.35660E+03
 2.35490E+03
 2.37050E+03
 2.38910E+03
 2.35950E+03
 2.35870E+03
 2.37070E+03
 2.36660E+03
 2.37390E+03
 2.35150E+03
 2.37550E+03
 2.36840E+03
 2.37610E+03
 2.34770E+03
 2.36890E+03
 2.36220E+03
 2.36480E+03
 2.37030E+03
 2.38660E+03
 2.35480E+03
 2.37300E+03
 2.36970E+03
 2.37530E+03
 2.36990E+03
 2.37020E+03
 2.36520E+03
 2.35660E+03
 2.35680E+03
 2.36190E+03
 2.35890E+03
 2.36600E+03
 2.36540E+03
 2.37960E+03
 2.34850E+03
 2.36150E+03
 2.36710E+03
 2.36310E+03
 2.36400E+03
 2.37350E+03
 2.38230E+03
 2.35960E+03
 2.37500E+03
 2.38140E+03
 2.37870E+03
 2.39690E+03
 2.38280E+03
 2.38280E+03
 2.39190E+03
 2.40410E+03
 2.40980E+03
 2.42100E+03
 2.38600E+03
 2.41020E+03
 2.41080E+03
 2.41470E+03
 2.41790E+03
 2.42490E+03
 2.45780E+03
 2.44160E+03
 2.45810E+03
 2.48570E+03
 2.50930E+03
 2.55800E+03
 2.55300E+03
 2.60160E+03
 2.63460E+03
 2.65500E+03
 2.69530E+03
 2.75060E+03
 2.76260E+03
 2.83440E+03
 2.84360E+03
 2.89590E+03
 2.93260E+03
 2.98460E+03
 3.02930E+03
 3.09420E+03
 3.13060E+03
 3.18070E+03
 3.23140E+03
 3.27000E+03
 3.29740E+03
 3.33350E+03
 3.36780E+03
 3.37710E+03
 3.37490E+03
 3.33240E+03
 3.32580E+03
 3.30860E+03
 3.29900E+03
 3.29740E+03
 3.30000E+03
 3.27400E+03
 3.28890E+03
 3.29490E+03
 3.30190E+03
 3.30290E+03
 3.28940E+03
 3.29990E+03
 3.28770E+03
 3.30650E+03
 3.27900E+03
 3.32200E+03
 3.29620E+03
 3.28220E+03
 3.31100E+03
 3.30120E+03
 3.30300E+03
 3.32130E+03
 3.29930E+03
 3.30580E+03
 3.33800E+03
 3.33630E+03
 3.32450E+03
 3.31070E+03
 3.33730E+03
 3.35610E+03
 3.32790E+03
 3.32890E+03
 3.34060E+03
 3.36660E+03
 3.32620E+03
 3.36240E+03
 3.35070E+03
 3.36540E+03
 3.35330E+03
 3.34400E+03
 3.32460E+03
 3.34140E+03
 3.35860E+03
 3.36340E+03
 3.37800E+03
 3.37960E+03
 3.34840E+03
 3.37590E+03
 3.36720E+03
 3.35230E+03
 3.36610E+03
 3.34260E+03
 3.35430E+03
 3.33670E+03
 3.32700E+03
 3.34860E+03
 3.31750E+03
 3.30470E+03
 3.27640E+03
 3.29180E+03
 3.23500E+03
 3.25480E+03
 3.22550E+03
 3.14500E+03
 3.11970E+03
 3.08300E+03
 3.05000E+03
 3.00860E+03
 2.93020E+03
 2.89280E+03
 2.84510E+03
 2.82290E+03
 2.78520E+03
 2.74970E+03
 2.69340E+03
 2.71860E+03
 2.67700E+03
 2.65660E+03
 2.62780E+03
 2.61490E+03
 2.59510E+03
 2.59490E+03
 2.56690E+03
 2.53490E+03
 2.53480E+03
 2.53460E+03
 2.50930E+03
 2.48200E+03
 2.49460E+03
 2.47900E+03
 2.47030E+03
 2.48110E+03
 2.45510E+03
 2.46600E+03
 2.43490E+03
 2.43810E+03
 2.41930E+03
 2.42560E+03
 2.40940E+03
 2.40380E+03
 2.38690E+03
 2.38040E+03
 2.38790E+03
 2.37880E+03
 2.37700E+03
 2.36270E+03
 2.33330E+03
 2.32600E+03
 2.34980E+03
 2.33640E+03
 2.34840E+03
 2.30480E+03
 2.32180E+03
 2.29750E+03
 2.29570E+03
 2.30980E+03
 2.26920E+03
 2.29550E+03
 2.28890E+03
 2.27670E+03
 2.26000E+03
 2.25460E+03
 2.24110E+03
 2.23990E+03
 2.24430E+03
 2.24590E+03
 2.23540E+03
 2.22570E+03
 2.21940E+03
 2.22160E+03
 2.22390E+03
 2.19990E+03
 2.20150E+03
 2.18500E+03
 2.19830E+03
 2.18070E+03
 2.19290E+03
 2.18860E+03
 2.18880E+03
 2.17180E+03
 2.18930E+03
 2.18640E+03
 2.19370E+03
 2.19230E+03
 2.17910E+03
 2.16850E+03
 2.15730E+03
 2.16930E+03
 2.16850E+03
 2.14470E+03
 2.15730E+03
 2.15010E+03
 2.16150E+03
 2.15230E+03
 2.15860E+03
 2.15330E+03
 2.15990E+03
 2.15380E+03
 2.16780E+03
 2.14960E+03
 2.14400E+03
 2.15800E+03
 2.13910E+03
 2.14640E+03
 2.14130E+03
 2.15460E+03
 2.14490E+03
 2.14600E+03
 2.13790E+03
 2.13780E+03
 2.13470E+03
 2.15090E+03
 2.14220E+03
 2.14860E+03
 2.13820E+03
 2.14100E+03
 2.14020E+03
 2.14310E+03
 2.14530E+03
 2.15670E+03
 2.13040E+03
 2.12310E+03
 2.15140E+03
 2.12880E+03
 2.13930E+03
 2.15050E+03
 2.14450E+03
 2.13150E+03
 2.14670E+03
 2.12780E+03
 2.13710E+03
 2.13240E+03
 2.14080E+03
 2.14070E+03
 2.13220E+03
 2.14250E+03
 2.13840E+03
 2.13210E+03
 2.14630E+03
 2.12800E+03
 2.12830E+03
 2.13410E+03
 2.13790E+03
 2.13130E+03
 2.12110E+03
 2.12960E+03
 2.12360E+03
 2.14480E+03
 2.12550E+03
 2.14370E+03
 2.13590E+03
 2.14010E+03
 2.13210E+03
 2.13840E+03
 2.12650E+03
 2.12590E+03
 2.13260E+03
 2.12670E+03
 2.13140E+03
 2.12570E+03
 2.12010E+03
 2.12660E+03
 2.12580E+03
 2.12480E+03
 2.11580E+03
 2.13380E+03
 2.12870E+03
 2.12530E+03
 2.12360E+03
 2.13230E+03
 2.11240E+03
 2.13140E+03
 2.12740E+03
 2.12330E+03
 2.12680E+03
 2.12080E+03
